Timestamp	PPG	2023-07-21 14:47:47.752	fs=64.0
263584.001	1380.220
263584.002	1381.685
263584.030	1381.685
263584.031	1381.685
263584.056	1381.685
263584.067	1381.685
263584.092	1382.418
263584.124	1383.150
263584.125	1383.150
263584.150	1383.150
263584.151	1382.418
263584.171	1382.418
263584.181	1383.150
263584.201	1383.150
263584.227	1384.615
263584.229	1386.813
263584.247	1393.407
263584.249	1402.198
263584.277	1413.919
263584.301	1424.908
263584.303	1433.700
263584.331	1438.828
263584.357	1439.560
263584.365	1436.630
263584.367	1430.037
263584.381	1424.908
263584.403	1417.582
263584.416	1411.722
263584.431	1405.861
263584.444	1400.000
263584.469	1393.407
263584.480	1388.278
263584.504	1383.150
263584.509	1380.952
263584.537	1379.487
263584.549	1378.755
263584.555	1378.755
263584.581	1380.952
263584.582	1381.685
263584.609	1383.150
263584.619	1383.883
263584.629	1385.348
263584.653	1385.348
263584.674	1384.615
263584.675	1383.883
263584.707	1382.418
263584.709	1380.220
263584.727	1380.220
263584.765	1380.952
263584.766	1381.685
263584.777	1380.220
263584.799	1381.685
263584.800	1382.418
263584.825	1383.150
263584.845	1383.883
263584.854	1383.883
263584.877	1383.150
263584.879	1383.883
263584.896	1383.883
263584.934	1384.615
263584.935	1384.615
263584.949	1385.348
263584.959	1384.615
263584.984	1384.615
263584.990	1383.883
263585.009	1384.615
263585.025	1384.615
263585.034	1384.615
263585.068	1384.615
263585.074	1386.813
263585.085	1390.476
263585.110	1398.535
263585.111	1408.059
263585.125	1419.048
263585.157	1430.037
263585.159	1438.095
263585.184	1441.758
263585.196	1441.026
263585.212	1436.630
263585.224	1430.769
263585.249	1422.711
263585.264	1416.850
263585.273	1410.256
263585.297	1404.396
263585.299	1398.535
263585.324	1394.139
263585.340	1389.744
263585.350	1386.813
263585.380	1384.615
263585.381	1383.150
263585.406	1381.685
263585.440	1383.150
263585.441	1384.615
263585.444	1387.546
263585.474	1389.011
263585.475	1390.476
263585.500	1389.744
263585.501	1388.278
263585.541	1386.813
263585.542	1386.081
263585.555	1383.883
263585.564	1382.418
263585.589	1381.685
263585.607	1382.418
263585.620	1382.418
263585.650	1383.150
263585.651	1384.615
263585.666	1386.081
263585.684	1386.081
263585.690	1386.813
263585.709	1386.813
263585.723	1386.813
263585.745	1386.813
263585.770	1386.813
263585.771	1385.348
263585.787	1384.615
263585.805	1384.615
263585.815	1384.615
263585.832	1384.615
263585.856	1385.348
263585.894	1386.081
263585.895	1388.278
263585.905	1392.674
263585.915	1400.000
263585.926	1408.059
263585.951	1419.048
263585.955	1427.839
263585.980	1435.165
263586.006	1438.828
263586.008	1438.095
263586.032	1434.432
263586.034	1429.304
263586.057	1421.978
263586.081	1415.385
263586.082	1408.791
263586.123	1402.930
263586.124	1397.070
263586.129	1391.941
263586.149	1387.546
263586.159	1384.615
263586.186	1383.150
263586.187	1383.150
263586.209	1384.615
263586.246	1387.546
263586.248	1389.744
263586.262	1392.674
263586.272	1394.872
263586.297	1394.872
263586.307	1392.674
263586.325	1391.941
263586.355	1389.744
263586.356	1387.546
263586.373	1385.348
263586.386	1384.615
263586.396	1383.150
263586.430	1383.883
263586.431	1383.883
263586.446	1385.348
263586.471	1386.081
263586.472	1386.813
263586.498	1388.278
263586.507	1389.011
263586.533	1389.744
263586.534	1390.476
263586.564	1389.011
263586.599	1389.011
263586.600	1387.546
263586.604	1387.546
263586.619	1386.813
263586.630	1386.813
263586.655	1387.546
263586.689	1391.209
263586.690	1394.872
263586.715	1402.198
263586.716	1410.256
263586.725	1419.780
263586.750	1428.571
263586.754	1434.432
263586.779	1435.165
263586.780	1432.234
263586.809	1427.839
263586.834	1422.711
263586.850	1416.117
263586.851	1410.989
263586.863	1404.396
263586.887	1398.535
263586.894	1391.941
263586.919	1388.278
263586.924	1383.883
263586.957	1383.150
263586.966	1383.150
263586.975	1385.348
263586.994	1388.278
263587.005	1390.476
263587.037	1392.674
263587.039	1393.407
263587.071	1391.941
263587.072	1391.209
263587.083	1390.476
263587.097	1389.744
263587.124	1388.278
263587.125	1387.546
263587.157	1386.081
263587.159	1386.081
263587.191	1384.615
263587.192	1384.615
263587.214	1383.883
263587.220	1383.883
263587.245	1385.348
263587.262	1386.813
263587.272	1386.813
263587.304	1388.278
263587.330	1389.011
263587.331	1389.011
263587.350	1388.278
263587.351	1388.278
263587.365	1386.813
263587.387	1386.081
263587.427	1385.348
263587.429	1385.348
263587.432	1384.615
263587.450	1386.813
263587.464	1388.278
263587.479	1392.674
263587.497	1397.802
263587.506	1405.861
263587.531	1415.385
263587.532	1424.176
263587.554	1430.037
263587.587	1433.700
263587.589	1431.502
263587.604	1427.106
263587.619	1421.245
263587.630	1413.919
263587.657	1406.593
263587.671	1400.000
263587.679	1394.139
263587.699	1391.209
263587.713	1387.546
263587.722	1386.081
263587.780	1385.348
263587.781	1386.081
263587.782	1386.813
263587.801	1389.011
263587.802	1390.476
263587.822	1392.674
263587.838	1393.407
263587.853	1394.139
263587.869	1393.407
263587.905	1391.209
263587.906	1389.011
263587.912	1388.278
263587.925	1386.081
263587.956	1384.615
263587.958	1383.883
263587.974	1383.150
263588.004	1382.418
263588.021	1383.150
263588.024	1383.883
263588.037	1386.081
263588.055	1386.081
263588.062	1388.278
263588.088	1387.546
263588.105	1388.278
263588.131	1387.546
263588.132	1387.546
263588.145	1386.813
263588.170	1386.813
263588.179	1386.081
263588.204	1386.813
263588.205	1386.081
263588.220	1385.348
263588.252	1385.348
263588.265	1386.081
263588.272	1387.546
263588.291	1392.674
263588.307	1400.000
263588.321	1409.524
263588.334	1419.048
263588.361	1426.374
263588.377	1430.037
263588.387	1430.769
263588.392	1426.374
263588.417	1420.513
263588.424	1413.919
263588.444	1407.326
263588.469	1400.733
263588.496	1395.604
263588.497	1390.476
263588.510	1386.813
263588.534	1383.883
263588.535	1381.685
263588.557	1382.418
263588.565	1383.883
263588.590	1386.081
263588.617	1388.278
263588.637	1389.744
263588.639	1389.744
263588.649	1389.011
263588.657	1390.476
263588.679	1390.476
263588.712	1390.476
263588.714	1388.278
263588.729	1387.546
263588.745	1385.348
263588.760	1384.615
263588.771	1382.418
263588.784	1383.150
263588.811	1386.081
263588.812	1388.278
263588.839	1390.476
263588.852	1393.407
263588.872	1396.337
263588.882	1399.267
263588.908	1400.733
263588.909	1402.198
263588.925	1403.663
263588.961	1403.663
263588.962	1403.663
263588.975	1403.663
263588.985	1403.663
263589.010	1405.128
263589.036	1405.861
263589.037	1407.326
263589.052	1408.791
263589.078	1410.989
263589.096	1413.919
263589.106	1416.117
263589.120	1418.315
263589.129	1419.780
263589.152	1418.315
263589.165	1416.117
263589.194	1411.722
263589.195	1405.128
263589.210	1399.267
263589.239	1394.139
263589.240	1389.011
263589.265	1386.813
263589.276	1382.418
263589.309	1380.952
263589.310	1379.487
263589.322	1379.487
263589.342	1379.487
263589.351	1381.685
263589.365	1384.615
263589.389	1388.278
263589.421	1390.476
263589.422	1391.941
263589.436	1391.941
263589.446	1391.941
263589.471	1389.744
263589.472	1387.546
263589.497	1385.348
263589.509	1383.883
263589.550	1383.883
263589.551	1384.615
263589.559	1384.615
263589.572	1386.081
263589.587	1386.813
263589.605	1388.278
263589.615	1388.278
263589.632	1389.011
263589.660	1389.011
263589.677	1389.011
263589.679	1387.546
263589.704	1386.813
263589.709	1386.081
263589.724	1385.348
263589.749	1384.615
263589.779	1384.615
263589.780	1384.615
263589.792	1388.278
263589.809	1391.941
263589.827	1397.802
263589.839	1404.396
263589.869	1414.652
263589.870	1422.711
263589.895	1430.037
263589.925	1432.234
263589.926	1432.234
263589.927	1428.571
263589.944	1422.711
263589.954	1416.117
263589.979	1408.059
263589.984	1400.733
263590.021	1396.337
263590.035	1392.674
263590.037	1390.476
263590.057	1388.278
263590.082	1386.813
263590.088	1386.081
263590.106	1388.278
263590.131	1389.744
263590.132	1391.209
263590.156	1391.941
263590.174	1394.139
263590.179	1393.407
263590.204	1394.139
263590.209	1391.941
263590.226	1389.744
263590.251	1387.546
263590.267	1385.348
263590.269	1383.883
263590.286	1383.883
263590.307	1383.150
263590.335	1384.615
263590.336	1385.348
263590.375	1386.813
263590.376	1387.546
263590.382	1388.278
263590.393	1388.278
263590.414	1389.011
263590.424	1389.744
263590.442	1389.744
263590.466	1389.011
263590.487	1389.011
263590.489	1387.546
263590.529	1387.546
263590.530	1389.744
263590.541	1395.604
263590.552	1403.663
263590.577	1413.919
263590.586	1422.711
263590.611	1432.234
263590.620	1437.363
263590.625	1438.828
263590.651	1435.897
263590.672	1431.502
263590.679	1423.443
263590.702	1416.117
263590.735	1408.791
263590.736	1402.198
263590.741	1396.337
263590.760	1391.941
263590.774	1388.278
263590.787	1384.615
263590.815	1383.883
263590.851	1385.348
263590.852	1386.813
263590.856	1389.011
263590.870	1389.744
263590.884	1389.744
263590.907	1391.209
263590.909	1391.941
263590.921	1390.476
263590.946	1389.011
263590.971	1387.546
263590.973	1386.081
263590.995	1385.348
263591.009	1385.348
263591.034	1386.081
263591.035	1386.081
263591.070	1386.081
263591.092	1386.813
263591.095	1386.081
263591.096	1386.813
263591.118	1386.813
263591.142	1387.546
263591.144	1386.081
263591.169	1385.348
263591.205	1383.883
263591.210	1383.883
263591.211	1383.883
263591.221	1386.081
263591.245	1387.546
263591.291	1389.744
263591.292	1393.407
263591.294	1402.198
263591.324	1411.722
263591.325	1421.978
263591.342	1430.037
263591.351	1437.363
263591.360	1438.095
263591.385	1437.363
263591.410	1432.234
263591.411	1426.374
263591.444	1418.315
263591.445	1411.722
263591.460	1405.128
263591.478	1400.000
263591.494	1394.872
263591.507	1390.476
263591.517	1385.348
263591.550	1381.685
263591.551	1380.220
263591.581	1381.685
263591.582	1383.150
263591.607	1386.813
263591.616	1387.546
263591.629	1389.744
263591.654	1389.744
263591.655	1390.476
263591.680	1388.278
263591.705	1387.546
263591.714	1386.081
263591.722	1385.348
263591.747	1384.615
263591.754	1384.615
263591.787	1383.883
263591.789	1383.883
263591.815	1383.150
263591.816	1383.883
263591.842	1384.615
263591.852	1384.615
263591.876	1385.348
263591.877	1386.081
263591.909	1385.348
263591.924	1386.813
263591.925	1386.813
263591.950	1386.813
263591.951	1386.813
263591.975	1387.546
263591.989	1389.744
263592.017	1394.139
263592.037	1400.733
263592.040	1411.722
263592.056	1420.513
263592.076	1428.571
263592.086	1432.967
263592.104	1434.432
263592.119	1431.502
263592.149	1427.106
263592.150	1421.245
263592.161	1414.652
263592.186	1409.524
263592.200	1403.663
263592.212	1397.070
263592.226	1391.209
263592.265	1386.081
263592.266	1383.150
263592.271	1381.685
263592.291	1381.685
263592.306	1382.418
263592.335	1385.348
263592.336	1387.546
263592.352	1388.278
263592.381	1389.744
263592.396	1390.476
263592.397	1388.278
263592.425	1387.546
263592.426	1385.348
263592.451	1383.883
263592.452	1381.685
263592.475	1382.418
263592.503	1380.952
263592.507	1383.150
263592.517	1383.150
263592.542	1383.883
263592.552	1384.615
263592.580	1385.348
263592.589	1384.615
263592.614	1384.615
263592.615	1383.883
263592.631	1385.348
263592.650	1384.615
263592.674	1383.883
263592.675	1384.615
263592.707	1388.278
263592.709	1393.407
263592.734	1401.465
263592.751	1410.989
263592.764	1420.513
263592.774	1427.839
263592.797	1431.502
263592.805	1430.769
263592.831	1427.839
263592.832	1421.245
263592.857	1414.652
263592.859	1406.593
263592.884	1400.000
263592.897	1392.674
263592.921	1387.546
263592.922	1381.685
263592.942	1379.487
263592.980	1379.487
263592.981	1380.220
263592.996	1383.150
263593.012	1386.081
263593.025	1389.011
263593.032	1391.209
263593.060	1391.941
263593.095	1391.941
263593.120	1389.744
263593.121	1387.546
263593.123	1386.081
263593.129	1383.883
263593.147	1382.418
263593.160	1382.418
263593.179	1382.418
263593.214	1383.150
263593.215	1383.883
263593.219	1385.348
263593.244	1385.348
263593.260	1386.081
263593.271	1385.348
263593.296	1385.348
263593.302	1385.348
263593.334	1385.348
263593.340	1386.081
263593.350	1386.813
263593.382	1388.278
263593.384	1390.476
263593.409	1394.139
263593.410	1400.733
263593.439	1409.524
263593.440	1418.315
263593.465	1423.443
263593.482	1427.106
263593.498	1425.641
263593.506	1421.978
263593.516	1416.117
263593.541	1410.256
263593.571	1404.396
263593.572	1398.535
263593.589	1391.941
263593.606	1386.813
263593.620	1383.150
263593.630	1382.418
263593.652	1381.685
263593.682	1383.150
263593.684	1383.883
263593.714	1386.813
263593.734	1389.011
263593.735	1390.476
263593.741	1391.209
263593.765	1391.209
263593.772	1389.011
263593.809	1388.278
263593.810	1386.813
263593.822	1385.348
263593.830	1384.615
263593.857	1384.615
263593.869	1384.615
263593.889	1385.348
263593.921	1384.615
263593.922	1385.348
263593.930	1386.081
263593.944	1385.348
263593.967	1386.081
263593.976	1386.813
263593.989	1387.546
263594.046	1389.011
263594.047	1388.278
263594.049	1386.081
263594.057	1384.615
263594.074	1385.348
263594.085	1386.813
263594.110	1391.941
263594.111	1398.535
263594.129	1407.326
263594.155	1415.385
263594.156	1421.978
263594.181	1425.641
263594.191	1424.176
263594.211	1420.513
263594.225	1415.385
263594.240	1408.059
263594.271	1402.198
263594.272	1394.872
263594.299	1390.476
263594.304	1386.813
263594.326	1383.150
263594.352	1381.685
263594.354	1381.685
263594.384	1383.150
263594.385	1385.348
263594.406	1387.546
263594.414	1389.744
263594.425	1391.209
263594.450	1391.941
263594.451	1391.941
263594.476	1391.209
263594.486	1389.011
263594.511	1387.546
263594.519	1385.348
263594.531	1384.615
263594.560	1384.615
263594.561	1384.615
263594.586	1386.081
263594.597	1386.813
263594.628	1386.081
263594.629	1385.348
263594.656	1386.081
263594.672	1385.348
263594.684	1386.081
263594.692	1386.081
263594.717	1385.348
263594.719	1385.348
263594.754	1384.615
263594.755	1386.081
263594.774	1386.813
263594.787	1389.011
263594.805	1391.209
263594.820	1394.872
263594.831	1400.000
263594.864	1407.326
263594.872	1415.385
263594.886	1422.711
263594.892	1425.641
263594.912	1427.106
263594.931	1424.908
263594.945	1420.513
263594.959	1415.385
263594.984	1410.989
263595.016	1403.663
263595.017	1398.535
263595.039	1392.674
263595.040	1388.278
263595.056	1384.615
263595.081	1383.150
263595.111	1383.150
263595.115	1385.348
263595.116	1387.546
263595.131	1391.209
263595.150	1392.674
263595.173	1392.674
263595.181	1392.674
263595.215	1391.941
263595.229	1389.011
263595.230	1387.546
263595.247	1384.615
263595.261	1384.615
263595.271	1383.883
263595.295	1385.348
263595.306	1386.081
263595.336	1388.278
263595.344	1388.278
263595.350	1389.011
263595.374	1388.278
263595.381	1388.278
263595.405	1386.813
263595.412	1386.813
263595.427	1387.546
263595.452	1388.278
263595.469	1389.011
263595.485	1389.744
263595.499	1390.476
263595.509	1392.674
263595.529	1397.070
263595.546	1403.663
263595.572	1412.454
263595.579	1421.978
263595.587	1428.571
263595.612	1432.967
263595.614	1434.432
263595.644	1432.967
263595.645	1427.106
263595.696	1421.245
263595.697	1415.385
263595.699	1408.059
263595.714	1401.465
263595.720	1394.872
263595.747	1389.744
263595.764	1385.348
263595.772	1383.150
263595.812	1381.685
263595.814	1382.418
263595.824	1385.348
263595.829	1387.546
263595.854	1390.476
263595.877	1391.209
263595.879	1391.209
263595.902	1390.476
263595.930	1388.278
263595.940	1387.546
263595.941	1386.813
263595.966	1385.348
263595.982	1383.150
263595.994	1382.418
263596.004	1383.150
263596.029	1383.883
263596.062	1383.883
263596.064	1383.150
263596.081	1383.883
263596.086	1384.615
263596.095	1384.615
263596.120	1384.615
263596.127	1385.348
263596.155	1384.615
263596.175	1386.081
263596.176	1386.081
263596.192	1386.813
263596.209	1388.278
263596.229	1391.941
263596.248	1394.872
263596.249	1402.198
263596.275	1411.722
263596.304	1422.711
263596.305	1431.502
263596.324	1438.828
263596.334	1442.491
263596.362	1441.758
263596.371	1437.363
263596.409	1430.769
263596.410	1423.443
263596.411	1416.850
263596.421	1410.256
263596.446	1404.396
263596.464	1397.070
263596.480	1391.941
263596.517	1386.081
263596.519	1383.150
263596.525	1381.685
263596.544	1381.685
263596.554	1382.418
263596.579	1385.348
263596.587	1387.546
263596.611	1389.744
263596.612	1389.744
263596.637	1391.209
263596.646	1390.476
263596.665	1389.744
263596.679	1388.278
263596.699	1386.813
263596.710	1384.615
263596.725	1383.150
263596.754	1381.685
263596.776	1380.952
263596.785	1379.487
263596.794	1380.952
263596.805	1382.418
263596.815	1383.150
263596.830	1383.883
263596.849	1385.348
263596.874	1384.615
263596.882	1383.883
263596.914	1383.150
263596.915	1383.883
263596.931	1386.081
263596.946	1386.813
263596.964	1387.546
263596.995	1388.278
263596.996	1389.011
263597.012	1393.407
263597.029	1400.000
263597.059	1410.256
263597.065	1421.245
263597.070	1431.502
263597.103	1438.095
263597.104	1441.026
263597.117	1439.560
263597.127	1434.432
263597.155	1426.374
263597.156	1418.315
263597.181	1409.524
263597.199	1400.733
263597.226	1393.407
263597.227	1386.813
263597.241	1381.685
263597.265	1377.289
263597.271	1375.824
263597.295	1378.022
263597.309	1380.220
263597.344	1383.883
263597.345	1386.813
263597.357	1389.744
263597.377	1389.744
263597.379	1389.744
263597.404	1389.744
263597.415	1389.011
263597.421	1387.546
263597.446	1384.615
263597.476	1382.418
263597.477	1380.952
263597.499	1380.220
263597.508	1380.952
263597.519	1381.685
263597.549	1383.150
263597.575	1383.883
263597.576	1385.348
263597.601	1385.348
263597.602	1386.081
263597.622	1385.348
263597.622	1385.348
263597.650	1384.615
263597.671	1384.615
263597.701	1383.883
263597.702	1384.615
263597.712	1383.883
263597.726	1384.615
263597.741	1386.081
263597.760	1387.546
263597.775	1389.011
263597.811	1393.407
263597.812	1398.535
263597.834	1405.861
263597.834	1414.652
263597.850	1422.711
263597.875	1427.839
263597.881	1432.234
263597.905	1431.502
263597.935	1427.839
263597.936	1421.978
263597.942	1415.385
263597.955	1408.059
263597.982	1402.198
263597.996	1396.337
263598.005	1393.407
263598.029	1389.744
263598.059	1388.278
263598.060	1386.813
263598.076	1387.546
263598.084	1387.546
263598.105	1389.011
263598.119	1389.744
263598.141	1390.476
263598.160	1391.941
263598.161	1393.407
263598.196	1392.674
263598.197	1391.209
263598.222	1389.744
263598.224	1389.011
263598.244	1387.546
263598.259	1386.813
263598.284	1386.081
263598.285	1386.081
263598.320	1385.348
263598.321	1386.081
263598.340	1386.813
263598.351	1387.546
263598.365	1388.278
263598.410	1389.744
263598.411	1389.744
263598.419	1390.476
263598.420	1389.011
263598.445	1389.011
263598.455	1389.011
263598.475	1389.011
263598.489	1388.278
263598.517	1388.278
263598.540	1386.813
263598.544	1387.546
263598.556	1391.209
263598.571	1396.337
263598.587	1405.128
263598.605	1416.117
263598.635	1425.641
263598.636	1432.234
263598.651	1435.897
263598.669	1436.630
263598.682	1433.700
263598.693	1428.571
263598.717	1421.245
263598.719	1413.919
263598.756	1408.059
263598.773	1402.930
263598.774	1398.535
263598.787	1392.674
263598.802	1387.546
263598.831	1386.081
263598.854	1386.813
263598.855	1389.011
263598.880	1391.209
263598.881	1393.407
263598.902	1393.407
263598.916	1393.407
263598.922	1392.674
263598.951	1391.941
263598.966	1391.209
263598.974	1391.209
263599.004	1389.744
263599.005	1389.011
263599.030	1388.278
263599.044	1386.813
263599.054	1386.081
263599.074	1386.081
263599.088	1386.813
263599.116	1388.278
263599.117	1389.011
263599.124	1389.011
263599.174	1388.278
263599.175	1387.546
263599.186	1388.278
263599.207	1387.546
263599.209	1387.546
263599.240	1387.546
263599.241	1386.813
263599.257	1387.546
263599.274	1388.278
263599.287	1389.011
263599.311	1390.476
263599.312	1392.674
263599.344	1398.535
263599.365	1405.861
263599.367	1413.919
263599.384	1421.245
263599.402	1427.106
263599.412	1430.037
263599.424	1428.571
263599.442	1424.908
263599.474	1419.780
263599.499	1413.919
263599.500	1407.326
263599.525	1400.733
263599.530	1394.872
263599.551	1389.011
263599.559	1385.348
263599.590	1385.348
263599.596	1385.348
263599.607	1386.081
263599.616	1388.278
263599.636	1389.744
263599.647	1390.476
263599.664	1391.209
263599.679	1391.941
263599.716	1391.209
263599.717	1391.209
263599.724	1389.744
263599.748	1388.278
263599.761	1386.813
263599.775	1386.813
263599.791	1387.546
263599.825	1386.813
263599.826	1386.081
263599.832	1386.081
263599.850	1386.813
263599.881	1386.813
263599.882	1386.813
263599.892	1386.813
263599.917	1386.813
263599.949	1386.813
263599.950	1386.081
263599.965	1386.813
263599.978	1386.813
263600.001	1386.813
263600.009	1385.348
263600.034	1386.081
263600.068	1388.278
263600.069	1391.209
263600.074	1395.604
263600.087	1402.198
263600.117	1409.524
263600.119	1416.850
263600.134	1421.978
263600.151	1424.908
263600.192	1423.443
263600.197	1419.780
263600.200	1413.919
263600.216	1408.791
263600.222	1402.930
263600.241	1397.802
263600.255	1393.407
263600.295	1389.011
263600.305	1385.348
263600.306	1383.150
263600.322	1383.150
263600.329	1383.883
263600.354	1386.813
263600.370	1390.476
263600.381	1392.674
263600.414	1393.407
263600.430	1393.407
263600.430	1391.941
263600.446	1389.744
263600.470	1388.278
263600.471	1386.081
263600.496	1386.081
263600.525	1385.348
263600.526	1384.615
263600.552	1382.418
263600.554	1383.150
263600.580	1384.615
263600.581	1385.348
263600.605	1386.813
263600.617	1389.011
263600.627	1391.209
263600.657	1391.941
263600.680	1391.941
263600.689	1391.941
263600.696	1391.209
263600.721	1390.476
263600.750	1390.476
263600.751	1391.209
263600.776	1391.209
263600.777	1392.674
263600.804	1395.604
263600.805	1400.000
263600.820	1406.593
263600.829	1411.722
263600.856	1415.385
263600.882	1417.582
263600.884	1416.850
263600.899	1413.919
263600.916	1408.791
263600.925	1403.663
263600.946	1397.802
263600.957	1392.674
263600.984	1387.546
263600.985	1382.418
263601.010	1379.487
263601.024	1380.220
263601.040	1383.150
263601.054	1385.348
263601.074	1388.278
263601.087	1390.476
263601.123	1391.209
263601.124	1393.407
263601.135	1394.139
263601.160	1394.139
263601.175	1392.674
263601.189	1391.941
263601.202	1391.209
263601.212	1389.744
263601.249	1386.813
263601.250	1386.081
263601.261	1385.348
263601.272	1386.081
263601.299	1386.081
263601.300	1386.081
263601.325	1386.813
263601.326	1386.813
263601.357	1386.081
263601.389	1387.546
263601.390	1389.744
263601.415	1390.476
263601.416	1390.476
263601.431	1390.476
263601.445	1391.941
263601.479	1395.604
263601.480	1400.733
263601.492	1408.059
263601.516	1414.652
263601.526	1419.780
263601.541	1423.443
263601.566	1424.176
263601.571	1422.711
263601.596	1418.315
263601.611	1412.454
263601.614	1406.593
263601.630	1400.733
263601.647	1395.604
263601.667	1391.941
263601.677	1387.546
263601.715	1386.081
263601.716	1386.081
263601.721	1387.546
263601.746	1391.209
263601.764	1392.674
263601.774	1394.872
263601.782	1397.070
263601.806	1397.802
263601.839	1397.802
263601.840	1396.337
263601.855	1394.139
263601.880	1393.407
263601.890	1391.209
263601.907	1390.476
263601.921	1390.476
263601.954	1391.941
263601.955	1391.941
263601.956	1392.674
263601.991	1392.674
263601.992	1392.674
263602.008	1391.941
263602.049	1391.209
263602.075	1389.744
263602.076	1390.476
263602.079	1392.674
263602.091	1397.070
263602.106	1403.663
263602.116	1411.722
263602.125	1421.245
263602.150	1429.304
263602.195	1433.700
263602.196	1435.165
263602.200	1432.234
263602.215	1428.571
263602.224	1421.978
263602.269	1414.652
263602.270	1408.059
263602.271	1402.198
263602.304	1394.872
263602.305	1389.744
263602.320	1386.081
263602.345	1385.348
263602.346	1385.348
263602.371	1387.546
263602.381	1389.011
263602.415	1391.941
263602.416	1394.872
263602.437	1395.604
263602.444	1394.139
263602.466	1393.407
263602.476	1391.941
263602.486	1391.209
263602.508	1390.476
263602.516	1388.278
263602.543	1386.081
263602.552	1386.081
263602.575	1385.348
263602.590	1385.348
263602.597	1386.081
263602.629	1386.813
263602.660	1387.546
263602.661	1387.546
263602.688	1386.813
263602.706	1386.813
263602.707	1388.278
263602.709	1391.209
263602.725	1394.872
263602.740	1402.198
263602.780	1410.989
263602.781	1421.978
263602.789	1429.304
263602.806	1435.897
263602.830	1437.363
263602.831	1435.897
263602.851	1431.502
263602.865	1425.641
263602.896	1419.048
263602.897	1411.722
263602.914	1405.128
263602.932	1399.267
263602.946	1394.139
263602.964	1390.476
263602.980	1387.546
263603.013	1385.348
263603.014	1383.883
263603.024	1383.883
263603.036	1384.615
263603.054	1386.813
263603.067	1389.011
263603.124	1390.476
263603.149	1391.209
263603.150	1390.476
263603.151	1387.546
263603.152	1386.813
263603.169	1385.348
263603.182	1383.883
263603.204	1383.150
263603.211	1383.883
263603.225	1384.615
263603.264	1384.615
263603.265	1384.615
263603.276	1385.348
263603.282	1386.081
263603.307	1386.081
263603.330	1385.348
263603.331	1385.348
263603.361	1385.348
263603.362	1384.615
263603.380	1383.883
263603.404	1384.615
263603.414	1386.081
263603.427	1389.744
263603.455	1397.070
263603.464	1407.326
263603.492	1417.582
263603.494	1427.106
263603.506	1433.700
263603.530	1435.897
263603.541	1435.897
263603.557	1434.432
263603.576	1429.304
263603.605	1422.711
263603.606	1416.117
263603.612	1411.722
263603.636	1405.128
263603.651	1400.000
263603.667	1395.604
263603.676	1389.744
263603.701	1385.348
263603.729	1382.418
263603.730	1380.220
263603.744	1380.952
263603.768	1382.418
263603.769	1383.883
263603.793	1386.081
263603.804	1388.278
263603.841	1387.546
263603.842	1387.546
263603.855	1386.081
263603.869	1384.615
263603.889	1383.150
263603.895	1381.685
263603.921	1381.685
263603.954	1382.418
263603.955	1382.418
263603.980	1382.418
263603.981	1383.150
263604.006	1384.615
263604.008	1383.883
263604.023	1384.615
263604.044	1384.615
263604.069	1383.883
263604.070	1382.418
263604.084	1383.883
263604.106	1383.150
263604.125	1382.418
263604.126	1382.418
263604.152	1382.418
263604.159	1383.150
263604.205	1384.615
263604.206	1386.813
263604.207	1391.209
263604.224	1398.535
263604.247	1406.593
263604.249	1416.117
263604.276	1425.641
263604.318	1430.037
263604.319	1432.234
263604.327	1430.769
263604.329	1426.374
263604.354	1421.245
263604.371	1415.385
263604.384	1408.791
263604.407	1402.930
263604.409	1396.337
263604.434	1391.941
263604.446	1386.813
263604.465	1384.615
263604.475	1384.615
263604.509	1384.615
263604.510	1385.348
263604.535	1387.546
263604.561	1388.278
263604.562	1389.744
263604.591	1389.744
263604.611	1389.011
263604.614	1387.546
263604.615	1387.546
263604.633	1386.081
263604.645	1385.348
263604.671	1383.883
263604.677	1383.150
263604.702	1383.150
263604.709	1383.150
263604.724	1382.418
263604.741	1383.150
263604.761	1383.150
263604.786	1384.615
263604.793	1384.615
263604.805	1386.813
263604.834	1387.546
263604.835	1386.813
263604.850	1385.348
263604.879	1384.615
263604.880	1383.150
263604.910	1383.150
263604.911	1383.883
263604.924	1384.615
263604.947	1384.615
263604.977	1385.348
263604.982	1386.081
263605.011	1386.813
263605.012	1388.278
263605.029	1389.011
263605.045	1390.476
263605.053	1393.407
263605.072	1397.802
263605.083	1403.663
263605.108	1410.989
263605.115	1418.315
263605.144	1422.711
263605.152	1426.374
263605.180	1427.106
263605.181	1425.641
263605.199	1421.245
263605.209	1414.652
263605.236	1408.059
263605.237	1403.663
263605.264	1398.535
263605.287	1394.139
263605.290	1389.011
263605.305	1387.546
263605.326	1386.081
263605.340	1386.081
263605.354	1386.081
263605.379	1387.546
263605.380	1387.546
263605.405	1389.744
263605.414	1390.476
263605.420	1391.941
263605.443	1391.209
263605.468	1391.209
263605.495	1390.476
263605.496	1389.011
263605.510	1386.813
263605.532	1385.348
263605.549	1383.883
263605.552	1384.615
263605.566	1385.348
263605.585	1385.348
263605.620	1386.813
263605.621	1387.546
263605.634	1387.546
263605.659	1388.278
263605.670	1386.813
263605.686	1386.813
263605.729	1386.813
263605.737	1386.813
263605.739	1387.546
263605.740	1388.278
263605.762	1389.011
263605.772	1389.011
263605.791	1388.278
263605.804	1386.813
263605.824	1386.081
263605.844	1386.081
263605.877	1387.546
263605.879	1391.209
263605.904	1394.139
263605.905	1400.733
263605.915	1407.326
263605.926	1415.385
263605.951	1421.245
263605.975	1425.641
263605.976	1425.641
263605.986	1424.176
263606.005	1419.780
263606.025	1413.919
263606.058	1408.059
263606.059	1402.198
263606.091	1397.070
263606.092	1393.407
263606.107	1389.744
263606.117	1387.546
263606.140	1386.813
263606.150	1387.546
263606.159	1387.546
263606.193	1389.744
263606.194	1391.209
263606.213	1392.674
263606.227	1393.407
263606.240	1392.674
263606.262	1391.941
263606.276	1390.476
263606.285	1388.278
263606.319	1386.813
263606.320	1384.615
263606.335	1384.615
263606.350	1384.615
263606.376	1384.615
263606.377	1385.348
263606.403	1385.348
263606.413	1383.883
263606.440	1384.615
263606.454	1385.348
263606.467	1386.081
263606.476	1386.081
263606.489	1388.278
263606.519	1388.278
263606.520	1389.744
263606.546	1388.278
263606.569	1389.011
263606.570	1389.011
263606.590	1389.744
263606.609	1389.011
263606.614	1389.744
263606.635	1391.209
263606.648	1394.872
263606.677	1398.535
263606.682	1404.396
263606.699	1410.256
263606.712	1417.582
263606.721	1421.978
263606.745	1426.374
263606.749	1427.106
263606.775	1424.908
263606.801	1420.513
263606.806	1416.117
263606.830	1408.791
263606.831	1403.663
263606.859	1399.267
263606.860	1394.872
263606.885	1390.476
263606.916	1388.278
263606.917	1387.546
263606.921	1389.011
263606.946	1390.476
263606.965	1392.674
263606.975	1393.407
263607.000	1395.604
263607.006	1395.604
263607.033	1394.872
263607.041	1393.407
263607.059	1393.407
263607.060	1391.209
263607.089	1390.476
263607.109	1389.011
263607.117	1389.011
263607.149	1387.546
263607.150	1386.813
263607.175	1386.081
263607.176	1386.813
263607.200	1386.813
263607.216	1388.278
263607.225	1388.278
263607.250	1388.278
263607.277	1387.546
263607.279	1386.813
263607.287	1386.813
263607.310	1387.546
263607.311	1387.546
263607.331	1389.011
263607.355	1390.476
263607.381	1389.744
263607.382	1389.011
263607.400	1389.744
263607.415	1391.209
263607.422	1394.139
263607.456	1400.000
263607.466	1407.326
263607.497	1415.385
263607.499	1422.711
263607.514	1427.839
263607.526	1428.571
263607.545	1426.374
263607.557	1421.978
263607.572	1416.117
263607.587	1410.989
263607.630	1404.396
263607.632	1399.267
263607.648	1392.674
263607.649	1389.011
263607.674	1386.081
263607.675	1386.813
263607.700	1388.278
263607.714	1391.209
263607.742	1392.674
263607.749	1395.604
263607.750	1397.070
263607.775	1397.802
263607.805	1396.337
263607.806	1395.604
263607.820	1394.139
263607.849	1391.941
263607.850	1388.278
263607.872	1386.813
263607.882	1386.081
263607.900	1385.348
263607.914	1385.348
263607.930	1386.813
263607.944	1387.546
263607.974	1387.546
263607.975	1389.744
263607.999	1391.209
263608.011	1391.941
263608.040	1391.209
263608.041	1390.476
263608.062	1390.476
263608.096	1391.941
263608.097	1391.209
263608.108	1390.476
263608.114	1391.941
263608.140	1391.209
263608.146	1393.407
263608.173	1396.337
263608.174	1403.663
263608.206	1412.454
263608.207	1421.245
263608.224	1426.374
263608.249	1430.037
263608.263	1430.037
263608.279	1425.641
263608.292	1419.780
263608.325	1413.187
263608.326	1405.861
263608.345	1400.000
263608.346	1394.872
263608.371	1389.744
263608.381	1387.546
263608.403	1384.615
263608.431	1383.883
263608.432	1385.348
263608.457	1388.278
263608.485	1391.941
263608.487	1394.872
263608.501	1396.337
263608.502	1397.070
263608.527	1396.337
263608.558	1396.337
263608.559	1394.139
263608.575	1391.209
263608.585	1389.744
263608.595	1387.546
263608.620	1386.813
263608.636	1384.615
263608.650	1386.081
263608.679	1386.813
263608.680	1388.278
263608.699	1390.476
263608.717	1390.476
263608.728	1391.209
263608.749	1391.209
263608.755	1392.674
263608.780	1394.139
263608.781	1394.139
263608.806	1393.407
263608.820	1391.941
263608.829	1391.941
263608.854	1392.674
263608.875	1397.802
263608.882	1404.396
263608.895	1414.652
263608.930	1424.176
263608.931	1432.967
263608.949	1438.095
263608.962	1439.560
263608.976	1437.363
263608.989	1432.234
263609.006	1424.176
263609.039	1416.850
263609.065	1409.524
263609.066	1402.930
263609.091	1395.604
263609.092	1391.209
263609.107	1386.813
263609.114	1384.615
263609.155	1383.883
263609.156	1386.813
263609.169	1389.011
263609.189	1391.209
263609.190	1394.139
263609.215	1395.604
263609.222	1396.337
263609.245	1396.337
263609.275	1395.604
263609.276	1394.139
263609.298	1391.941
263609.299	1389.744
263609.324	1388.278
263609.325	1386.081
263609.354	1385.348
263609.387	1385.348
263609.389	1386.813
263609.406	1386.813
263609.407	1386.813
263609.422	1387.546
263609.447	1387.546
263609.470	1389.011
263609.471	1389.011
263609.496	1389.011
263609.519	1387.546
263609.525	1386.081
263609.540	1386.081
263609.557	1386.813
263609.572	1388.278
263609.582	1393.407
263609.607	1401.465
263609.637	1412.454
263609.640	1423.443
263609.661	1435.165
263609.671	1441.758
263609.677	1444.689
263609.705	1443.223
263609.706	1438.095
263609.739	1430.769
263609.740	1423.443
263609.764	1416.117
263609.774	1409.524
263609.799	1403.663
263609.800	1397.070
263609.830	1391.941
263609.831	1387.546
263609.860	1385.348
263609.880	1385.348
263609.886	1385.348
263609.894	1387.546
263609.917	1389.744
263609.919	1391.209
263609.943	1391.941
263609.975	1392.674
263609.976	1391.941
263609.992	1390.476
263610.007	1389.011
263610.021	1386.081
263610.045	1383.883
263610.054	1383.883
263610.096	1383.883
263610.097	1383.883
263610.115	1383.883
263610.116	1384.615
263610.130	1383.883
263610.154	1385.348
263610.169	1386.081
263610.180	1387.546
263610.191	1389.011
263610.220	1388.278
263610.221	1387.546
263610.242	1387.546
263610.256	1386.813
263610.280	1385.348
263610.281	1383.150
263610.311	1384.615
263610.336	1386.081
263610.337	1389.744
263610.363	1395.604
263610.364	1403.663
263610.385	1416.117
263610.395	1428.571
263610.414	1438.828
263610.424	1444.689
263610.462	1446.154
263610.464	1442.491
263610.479	1435.897
263610.495	1426.374
263610.507	1417.582
263610.527	1408.791
263610.546	1400.733
263610.573	1395.604
263610.574	1391.209
263610.586	1386.813
263610.610	1383.150
263610.611	1381.685
263610.637	1382.418
263610.650	1383.883
263610.659	1386.813
263610.686	1389.744
263610.687	1391.209
263610.711	1393.407
263610.720	1393.407
263610.745	1390.476
263610.755	1387.546
263610.782	1386.081
263610.814	1384.615
263610.824	1383.883
263610.825	1382.418
263610.827	1381.685
263610.854	1380.952
263610.869	1381.685
263610.880	1382.418
263610.920	1383.883
263610.937	1384.615
263610.944	1385.348
263610.945	1385.348
263610.958	1386.081
263610.985	1385.348
263611.011	1384.615
263611.012	1383.150
263611.045	1382.418
263611.059	1383.150
263611.060	1385.348
263611.076	1385.348
263611.093	1387.546
263611.106	1391.941
263611.116	1399.267
263611.160	1409.524
263611.161	1421.978
263611.174	1432.234
263611.176	1439.560
263611.203	1442.491
263611.210	1441.758
263611.224	1436.630
263611.244	1429.304
263611.257	1420.513
263611.284	1410.256
263611.300	1401.465
263611.301	1394.872
263611.316	1387.546
263611.329	1381.685
263611.359	1378.022
263611.372	1375.824
263611.401	1375.824
263611.402	1378.755
263611.410	1380.952
263611.425	1383.883
263611.450	1386.813
263611.451	1389.011
263611.484	1388.278
263611.485	1387.546
263611.514	1387.546
263611.515	1386.081
263611.540	1384.615
263611.556	1383.150
263611.566	1381.685
263611.582	1381.685
263611.594	1380.220
263611.619	1380.952
263611.652	1380.220
263611.654	1380.952
263611.686	1382.418
263611.687	1383.883
263611.697	1385.348
263611.709	1385.348
263611.719	1386.081
263611.750	1386.081
263611.768	1385.348
263611.776	1385.348
263611.786	1385.348
263611.810	1385.348
263611.825	1384.615
263611.826	1383.883
263611.865	1383.883
263611.867	1385.348
263611.885	1390.476
263611.901	1397.070
263611.911	1407.326
263611.926	1420.513
263611.946	1430.769
263611.964	1438.828
263612.004	1441.026
263612.005	1437.363
263612.006	1429.304
263612.032	1420.513
263612.048	1413.187
263612.055	1405.128
263612.071	1397.802
263612.102	1390.476
263612.104	1383.150
263612.124	1378.755
263612.125	1376.557
263612.151	1377.289
263612.159	1378.022
263612.184	1381.685
263612.185	1383.883
263612.234	1386.813
263612.235	1389.011
263612.240	1389.744
263612.270	1389.011
263612.271	1386.813
263612.294	1384.615
263612.306	1381.685
263612.321	1380.220
263612.346	1379.487
263612.347	1378.022
263612.369	1378.022
263612.385	1379.487
263612.402	1380.952
263612.419	1383.150
263612.426	1386.813
263612.459	1389.011
263612.460	1391.209
263612.474	1390.476
263612.486	1390.476
263612.521	1388.278
263612.526	1387.546
263612.540	1386.081
263612.557	1384.615
263612.582	1382.418
263612.584	1381.685
263612.594	1380.220
263612.622	1381.685
263612.624	1383.150
263612.651	1388.278
263612.676	1396.337
263612.677	1406.593
263612.703	1419.048
263612.709	1430.769
263612.724	1436.630
263612.745	1438.828
263612.760	1435.897
263612.774	1430.037
263612.810	1421.978
263612.811	1413.187
263612.834	1405.128
263612.834	1397.070
263612.849	1389.744
263612.877	1383.883
263612.879	1379.487
263612.909	1377.289
263612.910	1377.289
263612.935	1378.755
263612.965	1381.685
263612.967	1383.883
263612.994	1386.081
263612.995	1387.546
263613.002	1388.278
263613.028	1388.278
263613.060	1387.546
263613.071	1386.813
263613.072	1385.348
263613.092	1383.883
263613.103	1380.952
263613.119	1380.220
263613.126	1380.220
263613.151	1380.952
263613.182	1381.685
263613.184	1383.150
263613.195	1383.150
263613.210	1386.081
263613.224	1386.813
263613.250	1388.278
263613.261	1388.278
263613.286	1388.278
263613.305	1387.546
263613.306	1387.546
263613.321	1387.546
263613.329	1387.546
263613.354	1388.278
263613.376	1389.744
263613.377	1389.011
263613.415	1390.476
263613.416	1393.407
263613.426	1400.000
263613.450	1410.256
263613.466	1420.513
263613.480	1429.304
263613.512	1435.897
263613.514	1435.897
263613.528	1433.700
263613.569	1427.106
263613.570	1418.315
263613.584	1410.256
263613.585	1401.465
263613.599	1394.139
263613.624	1388.278
263613.625	1383.883
263613.651	1380.220
263613.670	1378.022
263613.679	1379.487
263613.689	1381.685
263613.708	1385.348
263613.734	1387.546
263613.764	1389.011
263613.765	1389.744
263613.780	1390.476
263613.781	1389.744
263613.802	1388.278
263613.818	1386.081
263613.831	1384.615
263613.857	1384.615
263613.859	1383.883
263613.893	1383.150
263613.894	1384.615
263613.915	1385.348
263613.925	1385.348
263613.950	1386.081
263613.966	1386.081
263613.976	1386.081
263614.002	1385.348
263614.004	1383.883
263614.027	1383.150
263614.045	1383.150
263614.054	1383.883
263614.064	1383.883
263614.087	1383.883
263614.116	1385.348
263614.118	1388.278
263614.135	1393.407
263614.161	1400.733
263614.162	1410.989
263614.191	1420.513
263614.192	1427.839
263614.221	1432.234
263614.223	1432.234
263614.248	1428.571
263614.254	1421.978
263614.271	1414.652
263614.293	1405.861
263614.306	1397.802
263614.326	1390.476
263614.327	1383.883
263614.364	1378.755
263614.371	1376.557
263614.383	1376.557
263614.396	1379.487
263614.420	1381.685
263614.425	1385.348
263614.446	1389.011
263614.473	1391.941
263614.474	1392.674
263614.489	1393.407
263614.511	1392.674
263614.517	1389.744
263614.544	1386.081
263614.554	1383.150
263614.567	1380.952
263614.592	1380.220
263614.594	1380.952
263614.622	1380.952
263614.639	1381.685
263614.644	1383.150
263614.657	1384.615
263614.682	1386.081
263614.709	1386.081
263614.710	1386.081
263614.724	1386.081
263614.739	1386.813
263614.761	1387.546
263614.776	1388.278
263614.802	1390.476
263614.804	1394.872
263614.833	1400.733
263614.834	1410.256
263614.859	1419.780
263614.860	1427.839
263614.882	1432.967
263614.892	1432.234
263614.915	1428.571
263614.949	1422.711
263614.950	1415.385
263614.963	1407.326
263614.975	1400.000
263614.995	1393.407
263615.005	1386.813
263615.030	1383.150
263615.040	1380.220
263615.065	1380.220
263615.076	1381.685
263615.088	1384.615
263615.103	1386.813
263615.116	1389.744
263615.130	1391.209
263615.152	1392.674
263615.181	1392.674
263615.182	1391.941
263615.197	1389.744
263615.210	1388.278
263615.220	1386.081
263615.239	1384.615
263615.267	1383.883
263615.267	1383.883
263615.297	1383.883
263615.299	1383.883
263615.324	1384.615
263615.325	1385.348
263615.350	1386.081
263615.375	1387.546
263615.381	1388.278
263615.406	1389.744
263615.407	1389.744
263615.425	1390.476
263615.465	1389.744
263615.466	1391.209
263615.491	1394.872
263615.492	1402.930
263615.513	1413.187
263615.537	1422.711
263615.545	1430.769
263615.567	1434.432
263615.575	1435.165
263615.590	1432.967
263615.598	1427.106
263615.624	1419.048
263615.625	1410.256
263615.654	1402.198
263615.661	1395.604
263615.677	1389.744
263615.699	1384.615
263615.712	1381.685
263615.722	1380.220
263615.747	1381.685
263615.749	1383.150
263615.775	1386.813
263615.781	1390.476
263615.802	1392.674
263615.826	1393.407
263615.831	1393.407
263615.856	1392.674
263615.862	1390.476
263615.887	1389.011
263615.897	1388.278
263615.918	1387.546
263615.919	1386.813
263615.949	1385.348
263615.963	1384.615
263615.975	1385.348
263616.007	1386.081
263616.009	1386.081
263616.027	1386.081
263616.042	1386.813
263616.053	1387.546
263616.077	1387.546
263616.083	1386.813
263616.111	1387.546
263616.112	1387.546
263616.139	1389.744
263616.164	1394.139
263616.165	1400.733
263616.179	1411.722
263616.189	1422.711
263616.210	1434.432
263616.220	1441.026
263616.247	1443.223
263616.261	1439.560
263616.272	1432.234
263616.286	1424.176
263616.310	1416.117
263616.324	1408.059
263616.325	1402.198
263616.355	1394.872
263616.371	1390.476
263616.381	1386.081
263616.401	1383.883
263616.416	1382.418
263616.421	1383.883
263616.446	1385.348
263616.484	1389.011
263616.486	1391.941
263616.500	1394.139
263616.506	1394.139
263616.536	1393.407
263616.539	1390.476
263616.554	1389.744
263616.565	1387.546
263616.590	1386.081
263616.591	1384.615
263616.621	1383.883
263616.637	1382.418
263616.650	1383.150
263616.660	1383.883
263616.689	1386.081
263616.723	1388.278
263616.724	1389.011
263616.727	1388.278
263616.756	1387.546
263616.757	1387.546
263616.779	1386.081
263616.802	1385.348
263616.804	1384.615
263616.835	1383.883
263616.836	1385.348
263616.851	1389.011
263616.861	1395.604
263616.880	1406.593
263616.904	1419.780
263616.914	1432.967
263616.927	1443.223
263616.955	1446.886
263616.971	1446.886
263616.972	1440.293
263616.996	1432.234
263617.006	1422.711
263617.030	1412.454
263617.041	1404.396
263617.071	1397.070
263617.072	1389.744
263617.087	1385.348
263617.111	1383.150
263617.112	1382.418
263617.140	1381.685
263617.146	1383.883
263617.195	1385.348
263617.196	1389.011
263617.197	1389.744
263617.211	1391.941
263617.222	1391.941
263617.248	1391.941
263617.249	1389.744
263617.274	1386.813
263617.311	1386.081
263617.312	1383.883
263617.317	1383.150
263617.331	1381.685
263617.352	1381.685
263617.366	1383.150
263617.394	1383.150
263617.395	1385.348
263617.420	1386.081
263617.421	1387.546
263617.447	1387.546
263617.471	1386.813
263617.472	1385.348
263617.487	1383.883
263617.511	1383.883
263617.536	1383.883
263617.537	1383.883
263617.555	1386.081
263617.579	1387.546
263617.580	1389.011
263617.614	1393.407
263617.615	1400.000
263617.639	1408.791
263617.664	1419.048
263617.665	1427.839
263617.675	1433.700
263617.704	1435.165
263617.705	1431.502
263617.721	1424.908
263617.740	1416.850
263617.755	1408.059
263617.780	1400.000
263617.781	1391.941
263617.802	1386.813
263617.823	1383.150
263617.831	1380.220
263617.856	1379.487
263617.861	1379.487
263617.892	1380.952
263617.894	1385.348
263617.919	1387.546
263617.926	1390.476
263617.952	1391.941
263617.954	1391.941
263617.979	1391.209
263617.986	1390.476
263618.009	1387.546
263618.039	1384.615
263618.065	1382.418
263618.066	1381.685
263618.076	1380.952
263618.084	1381.685
263618.108	1380.220
263618.145	1381.685
263618.147	1382.418
263618.149	1384.615
263618.175	1386.081
263618.176	1386.813
263618.200	1386.813
263618.210	1386.081
263618.224	1385.348
263618.253	1384.615
263618.261	1384.615
263618.269	1384.615
263618.286	1385.348
263618.310	1385.348
263618.325	1385.348
263618.326	1386.813
263618.376	1390.476
263618.377	1398.535
263618.384	1408.059
263618.412	1419.048
263618.426	1427.839
263618.435	1433.700
263618.449	1434.432
263618.455	1432.234
263618.492	1424.908
263618.494	1416.850
263618.507	1408.791
263618.522	1401.465
263618.536	1394.139
263618.560	1388.278
263618.575	1384.615
263618.601	1381.685
263618.602	1380.220
263618.616	1380.952
263618.630	1381.685
263618.646	1384.615
263618.688	1386.081
263618.689	1387.546
263618.699	1388.278
263618.725	1389.011
263618.726	1388.278
263618.740	1386.813
263618.751	1386.081
263618.776	1386.081
263618.798	1385.348
263618.804	1385.348
263618.818	1383.883
263618.846	1383.150
263618.858	1383.150
263618.860	1383.150
263618.884	1383.150
263618.900	1384.615
263618.911	1385.348
263618.928	1386.813
263618.953	1386.081
263618.970	1387.546
263618.975	1386.813
263618.991	1386.813
263619.006	1385.348
263619.030	1386.081
263619.045	1386.081
263619.077	1384.615
263619.079	1383.883
263619.090	1385.348
263619.099	1390.476
263619.122	1397.802
263619.141	1405.861
263619.148	1417.582
263619.161	1426.374
263619.186	1432.967
263619.187	1434.432
263619.206	1431.502
263619.221	1426.374
263619.246	1419.048
263619.247	1410.989
263619.279	1403.663
263619.284	1397.070
263619.335	1391.209
263619.336	1386.813
263619.366	1383.883
263619.367	1380.952
263619.369	1380.952
263619.384	1383.150
263619.393	1386.081
263619.417	1388.278
263619.419	1391.941
263619.443	1392.674
263619.467	1394.139
263619.476	1393.407
263619.486	1391.209
263619.516	1389.744
263619.526	1388.278
263619.558	1386.081
263619.559	1385.348
263619.578	1383.883
263619.584	1383.150
263619.603	1382.418
263619.617	1383.150
263619.626	1384.615
263619.651	1386.081
263619.679	1387.546
263619.684	1387.546
263619.693	1388.278
263619.715	1387.546
263619.729	1386.813
263619.742	1386.813
263619.755	1387.546
263619.783	1386.813
263619.784	1386.813
263619.807	1386.813
263619.814	1386.081
263619.833	1388.278
263619.851	1391.941
263619.861	1398.535
263619.893	1406.593
263619.918	1417.582
263619.919	1429.304
263619.922	1438.828
263619.951	1443.956
263619.968	1443.223
263619.975	1437.363
263620.000	1430.769
263620.001	1421.978
263620.026	1413.919
263620.041	1405.861
263620.057	1399.267
263620.071	1392.674
263620.086	1388.278
263620.114	1385.348
263620.115	1383.883
263620.142	1384.615
263620.144	1386.081
263620.158	1387.546
263620.176	1391.209
263620.190	1392.674
263620.214	1394.139
263620.224	1394.139
263620.259	1393.407
263620.260	1391.941
263620.270	1389.744
263620.295	1387.546
263620.302	1386.813
263620.327	1385.348
263620.329	1384.615
263620.349	1383.150
263620.382	1383.883
263620.384	1383.883
263620.394	1385.348
263620.419	1386.081
263620.420	1388.278
263620.449	1388.278
263620.462	1388.278
263620.491	1387.546
263620.492	1386.813
263620.506	1386.081
263620.525	1385.348
263620.541	1384.615
263620.556	1386.081
263620.587	1385.348
263620.589	1387.546
263620.615	1391.209
263620.616	1398.535
263620.642	1406.593
263620.644	1419.048
263620.671	1430.037
263620.680	1441.026
263620.699	1446.886
263620.728	1446.886
263620.746	1441.758
263620.747	1433.700
263620.750	1424.176
263620.776	1415.385
263620.781	1405.861
263620.806	1399.267
263620.821	1392.674
263620.851	1389.011
263620.852	1384.615
263620.866	1383.150
263620.885	1381.685
263620.909	1381.685
263620.910	1382.418
263620.924	1385.348
263620.946	1387.546
263620.971	1390.476
263620.972	1391.209
263620.994	1391.941
263621.010	1390.476
263621.025	1389.011
263621.048	1386.081
263621.049	1384.615
263621.076	1383.883
263621.099	1383.883
263621.100	1384.615
263621.117	1384.615
263621.126	1383.150
263621.151	1383.150
263621.159	1383.883
263621.200	1385.348
263621.201	1386.081
263621.234	1386.813
263621.235	1386.813
263621.260	1387.546
263621.261	1388.278
263621.271	1388.278
263621.290	1386.813
263621.324	1386.813
263621.325	1385.348
263621.331	1384.615
263621.360	1383.883
263621.361	1386.081
263621.381	1388.278
263621.391	1396.337
263621.415	1406.593
263621.448	1418.315
263621.449	1430.037
263621.466	1438.828
263621.477	1442.491
263621.504	1441.758
263621.517	1435.165
263621.522	1427.839
263621.551	1421.245
263621.552	1421.245
263621.573	1408.059
263621.587	1400.733
263621.608	1392.674
263621.621	1386.081
263621.635	1380.952
263621.651	1378.755
263621.681	1378.022
263621.689	1381.685
263621.699	1385.348
263621.711	1389.011
263621.736	1391.941
263621.744	1391.941
263621.754	1391.209
263621.789	1390.476
263621.790	1388.278
263621.808	1387.546
263621.814	1385.348
263621.830	1384.615
263621.870	1383.150
263621.871	1383.150
263621.898	1383.150
263621.899	1384.615
263621.926	1385.348
263621.927	1384.615
263621.948	1385.348
263621.965	1385.348
263621.979	1385.348
263622.002	1386.081
263622.004	1386.081
263622.033	1386.081
263622.050	1384.615
263622.051	1385.348
263622.077	1384.615
263622.079	1384.615
263622.104	1384.615
263622.115	1384.615
263622.149	1385.348
263622.150	1387.546
263622.164	1391.941
263622.179	1397.802
263622.190	1408.059
263622.214	1420.513
263622.226	1430.769
263622.258	1436.630
263622.259	1437.363
263622.276	1435.165
263622.296	1428.571
263622.305	1420.513
263622.329	1410.256
263622.330	1402.198
263622.353	1394.872
263622.381	1389.011
263622.382	1383.150
263622.399	1380.220
263622.415	1378.022
263622.426	1378.022
263622.451	1380.952
263622.475	1384.615
263622.477	1388.278
263622.505	1389.744
263622.506	1391.941
263622.531	1391.941
263622.555	1391.209
263622.556	1389.744
263622.573	1387.546
263622.586	1384.615
263622.621	1383.150
263622.622	1382.418
263622.635	1381.685
263622.648	1380.952
263622.658	1380.952
263622.683	1381.685
263622.701	1382.418
263622.708	1383.150
263622.733	1383.883
263622.750	1386.813
263622.760	1386.813
263622.771	1386.813
263622.800	1385.348
263622.801	1384.615
263622.826	1383.883
263622.831	1384.615
263622.865	1384.615
263622.867	1384.615
263622.885	1386.081
263622.891	1389.011
263622.916	1392.674
263622.923	1400.000
263622.948	1408.791
263622.986	1419.048
263622.989	1427.106
263622.997	1431.502
263623.006	1431.502
263623.019	1427.839
263623.034	1420.513
263623.058	1412.454
263623.068	1403.663
263623.105	1396.337
263623.106	1389.744
263623.121	1384.615
263623.158	1379.487
263623.159	1378.022
263623.174	1379.487
263623.175	1381.685
263623.214	1385.348
263623.215	1389.011
263623.220	1391.209
263623.239	1391.941
263623.267	1391.941
263623.267	1390.476
263623.292	1388.278
263623.306	1387.546
263623.338	1386.081
263623.339	1386.081
263623.354	1385.348
263623.372	1384.615
263623.382	1383.883
263623.399	1383.150
263623.424	1383.150
263623.425	1383.883
263623.450	1383.883
263623.451	1384.615
263623.476	1384.615
263623.486	1385.348
263623.506	1385.348
263623.526	1386.081
263623.533	1386.081
263623.563	1386.081
263623.580	1386.081
263623.581	1386.081
263623.610	1388.278
263623.611	1393.407
263623.635	1402.198
263623.646	1413.187
263623.679	1425.641
263623.694	1435.165
263623.700	1440.293
263623.714	1438.828
263623.725	1434.432
263623.740	1427.839
263623.759	1419.048
263623.788	1411.722
263623.789	1402.930
263623.814	1393.407
263623.844	1384.615
263623.845	1379.487
263623.853	1376.557
263623.878	1377.289
263623.879	1379.487
263623.904	1383.883
263623.938	1387.546
263623.939	1391.209
263623.946	1391.941
263623.971	1393.407
263623.972	1391.941
263624.005	1389.744
263624.006	1386.081
263624.035	1385.348
263624.051	1383.883
263624.052	1382.418
263624.071	1380.952
263624.089	1380.952
263624.095	1380.952
263624.120	1383.150
263624.129	1384.615
263624.165	1385.348
263624.166	1385.348
263624.181	1385.348
263624.199	1384.615
263624.215	1385.348
263624.216	1383.883
263624.241	1383.150
263624.251	1383.883
263624.280	1384.615
263624.286	1385.348
263624.311	1387.546
263624.322	1393.407
263624.333	1402.930
263624.350	1416.117
263624.376	1428.571
263624.377	1439.560
263624.403	1446.154
263624.429	1446.154
263624.430	1442.491
263624.455	1435.165
263624.476	1427.106
263624.477	1418.315
263624.488	1409.524
263624.519	1400.733
263624.530	1393.407
263624.535	1386.813
263624.554	1382.418
263624.569	1379.487
263624.586	1380.220
263624.614	1381.685
263624.615	1385.348
263624.640	1389.011
263624.654	1392.674
263624.665	1394.139
263624.691	1394.872
263624.696	1392.674
263624.710	1391.941
263624.724	1388.278
263624.750	1386.081
263624.763	1383.150
263624.773	1382.418
263624.783	1380.952
263624.814	1383.150
263624.828	1383.150
263624.829	1385.348
263624.860	1386.081
263624.881	1386.081
263624.882	1386.813
263624.907	1386.813
263624.915	1387.546
263624.928	1387.546
263624.953	1386.813
263624.963	1386.813
263624.988	1386.813
263624.999	1386.813
263625.006	1389.011
263625.031	1394.139
263625.044	1402.198
263625.070	1413.187
263625.071	1425.641
263625.096	1438.828
263625.097	1448.352
263625.123	1454.212
263625.138	1453.480
263625.151	1448.352
263625.158	1438.828
263625.182	1430.037
263625.190	1421.245
263625.228	1412.454
263625.229	1405.128
263625.244	1398.535
263625.261	1392.674
263625.275	1388.278
263625.299	1383.883
263625.300	1383.150
263625.329	1383.150
263625.330	1386.081
263625.349	1388.278
263625.370	1390.476
263625.380	1391.941
263625.406	1391.941
263625.412	1391.209
263625.425	1389.744
263625.453	1386.813
263625.454	1384.615
263625.473	1383.883
263625.489	1383.150
263625.513	1382.418
263625.514	1382.418
263625.531	1383.150
263625.560	1383.883
263625.588	1384.615
263625.589	1386.813
263625.608	1387.546
263625.619	1388.278
263625.635	1388.278
263625.649	1388.278
263625.674	1388.278
263625.675	1388.278
263625.700	1386.081
263625.725	1386.081
263625.726	1385.348
263625.751	1384.615
263625.761	1384.615
263625.771	1386.813
263625.796	1391.941
263625.797	1401.465
263625.820	1413.919
263625.830	1430.037
263625.849	1443.956
263625.873	1452.747
263625.882	1455.678
263625.906	1452.747
263625.907	1446.154
263625.933	1438.095
263625.952	1429.304
263625.964	1421.245
263625.974	1412.454
263625.999	1405.861
263626.005	1400.000
263626.038	1395.604
263626.056	1389.744
263626.057	1386.081
263626.076	1383.883
263626.085	1383.150
263626.099	1383.150
263626.118	1385.348
263626.139	1387.546
263626.167	1389.011
263626.168	1389.744
263626.185	1390.476
263626.200	1389.011
263626.210	1387.546
263626.220	1384.615
263626.248	1384.615
263626.280	1383.150
263626.281	1383.150
263626.302	1382.418
263626.303	1381.685
263626.328	1380.952
263626.353	1380.952
263626.354	1382.418
263626.370	1383.150
263626.409	1384.615
263626.410	1385.348
263626.415	1386.081
263626.434	1386.081
263626.447	1386.813
263626.468	1386.813
263626.481	1386.081
263626.513	1386.081
263626.514	1385.348
263626.536	1384.615
263626.546	1385.348
263626.560	1386.081
263626.572	1389.011
263626.583	1394.139
263626.603	1403.663
263626.616	1415.385
263626.645	1427.839
263626.646	1438.095
263626.668	1443.956
263626.681	1445.421
263626.706	1443.223
263626.707	1437.363
263626.718	1430.037
263626.743	1422.711
263626.764	1415.385
263626.771	1409.524
263626.793	1404.396
263626.803	1399.267
263626.828	1394.872
263626.829	1390.476
263626.850	1386.081
263626.879	1383.150
263626.884	1382.418
263626.911	1383.150
263626.912	1383.883
263626.923	1386.081
263626.951	1388.278
263626.969	1389.744
263626.994	1390.476
263627.020	1389.744
263627.021	1387.546
263627.046	1385.348
263627.050	1382.418
263627.056	1382.418
263627.075	1381.685
263627.089	1381.685
263627.114	1383.150
263627.115	1383.883
263627.135	1384.615
263627.153	1386.081
263627.170	1384.615
263627.180	1383.883
263627.205	1383.883
263627.230	1383.883
263627.231	1383.150
263627.244	1384.615
263627.253	1385.348
263627.279	1385.348
263627.280	1384.615
263627.305	1383.883
263627.320	1383.883
263627.358	1383.150
263627.359	1383.883
263627.368	1386.813
263627.381	1392.674
263627.401	1399.267
263627.415	1408.059
263627.424	1417.582
263627.459	1426.374
263627.481	1432.234
263627.483	1433.700
263627.496	1432.967
263627.506	1430.037
263627.526	1424.908
263627.548	1419.780
263627.549	1415.385
263627.579	1411.722
263627.580	1407.326
263627.606	1402.930
263627.635	1397.802
263627.636	1392.674
263627.651	1386.081
263627.669	1381.685
263627.694	1380.220
263627.695	1379.487
263627.710	1380.220
263627.720	1382.418
263627.740	1384.615
263627.765	1388.278
263627.774	1388.278
263627.799	1389.011
263627.800	1389.744
263627.826	1389.011
263627.827	1387.546
263627.850	1385.348
263627.876	1383.883
263627.877	1383.150
263627.909	1382.418
263627.910	1382.418
263627.943	1382.418
263627.944	1380.952
263627.965	1383.150
263627.975	1383.150
263628.010	1384.615
263628.011	1385.348
263628.029	1385.348
263628.067	1384.615
263628.067	1384.615
263628.074	1385.348
263628.088	1385.348
263628.111	1384.615
263628.112	1385.348
263628.134	1384.615
263628.149	1386.081
263628.175	1389.011
263628.176	1393.407
263628.200	1399.267
263628.214	1406.593
263628.215	1414.652
263628.240	1421.978
263628.276	1427.839
263628.277	1431.502
263628.303	1430.037
263628.304	1427.106
263628.326	1421.978
263628.327	1417.582
263628.353	1412.454
263628.378	1408.059
263628.379	1403.663
263628.404	1399.267
263628.425	1394.139
263628.426	1389.744
263628.453	1385.348
263628.454	1383.150
263628.479	1382.418
263628.485	1383.883
263628.510	1384.615
263628.535	1385.348
263628.541	1387.546
263628.554	1389.011
263628.564	1388.278
263628.589	1388.278
263628.605	1386.813
263628.616	1385.348
263628.641	1383.150
263628.656	1381.685
263628.672	1381.685
263628.674	1382.418
263628.708	1383.150
263628.709	1383.883
263628.719	1383.150
263628.744	1383.883
263628.771	1384.615
263628.772	1385.348
263628.801	1385.348
263628.809	1386.081
263628.830	1386.813
263628.853	1386.813
263628.859	1385.348
263628.885	1386.081
263628.890	1385.348
263628.919	1386.813
263628.938	1388.278
263628.940	1391.209
263628.945	1395.604
263628.963	1402.198
263628.976	1409.524
263629.008	1417.582
263629.009	1423.443
263629.022	1426.374
263629.030	1427.106
263629.054	1426.374
263629.065	1421.245
263629.093	1416.850
263629.094	1410.256
263629.124	1404.396
263629.125	1397.802
263629.148	1393.407
263629.158	1389.011
263629.183	1386.813
263629.184	1386.081
263629.213	1385.348
263629.248	1384.615
263629.249	1385.348
263629.256	1386.813
263629.284	1389.744
263629.285	1391.209
263629.315	1391.941
263629.316	1391.941
263629.349	1390.476
263629.350	1387.546
263629.369	1386.081
263629.385	1384.615
263629.393	1383.883
263629.417	1381.685
263629.424	1382.418
263629.451	1383.150
263629.478	1383.150
263629.484	1383.883
263629.496	1384.615
263629.506	1386.081
263629.529	1387.546
263629.554	1389.011
263629.555	1389.011
263629.585	1388.278
263629.608	1388.278
263629.609	1389.011
263629.619	1388.278
263629.630	1388.278
263629.645	1389.744
263629.671	1393.407
263629.676	1399.267
263629.705	1407.326
263629.707	1416.117
263629.721	1422.711
263629.746	1426.374
263629.747	1427.106
263629.775	1424.908
263629.784	1419.048
263629.822	1413.919
263629.825	1409.524
263629.838	1405.128
263629.853	1400.000
263629.868	1395.604
263629.883	1390.476
263629.896	1387.546
263629.923	1386.081
263629.949	1385.348
263629.950	1385.348
263629.955	1386.813
263629.975	1387.546
263629.995	1389.744
263630.010	1389.744
263630.025	1389.744
263630.033	1389.744
263630.060	1390.476
263630.074	1389.011
263630.083	1388.278
263630.108	1386.813
263630.114	1384.615
263630.134	1383.883
263630.148	1383.150
263630.189	1383.883
263630.190	1384.615
263630.215	1385.348
263630.216	1386.813
263630.238	1385.348
263630.246	1386.081
263630.256	1387.546
263630.293	1388.278
263630.294	1388.278
263630.313	1386.813
263630.314	1386.813
263630.339	1386.813
263630.351	1386.813
263630.361	1389.011
263630.380	1390.476
263630.421	1396.337
263630.422	1402.930
263630.433	1410.256
263630.448	1417.582
263630.463	1423.443
263630.478	1425.641
263630.496	1424.908
263630.506	1422.711
263630.539	1418.315
263630.545	1413.187
263630.555	1406.593
263630.580	1398.535
263630.583	1392.674
263630.609	1387.546
263630.610	1387.546
263630.629	1386.813
263630.654	1388.278
263630.668	1388.278
263630.686	1387.546
263630.702	1387.546
263630.708	1387.546
263630.721	1389.011
263630.746	1391.209
263630.747	1391.209
263630.774	1389.744
263630.789	1389.744
263630.804	1388.278
263630.830	1388.278
263630.854	1385.348
263630.855	1384.615
263630.891	1383.883
263630.892	1384.615
263630.905	1384.615
263630.917	1384.615
263630.923	1384.615
263630.950	1386.081
263630.967	1386.813
263630.980	1389.011
263631.014	1389.011
263631.024	1389.011
263631.025	1387.546
263631.044	1386.813
263631.058	1386.081
263631.064	1386.081
263631.089	1386.813
263631.095	1386.081
263631.123	1387.546
263631.140	1391.209
263631.146	1396.337
263631.174	1401.465
263631.175	1408.059
263631.205	1415.385
263631.220	1422.711
263631.246	1427.106
263631.247	1427.106
263631.255	1424.176
263631.270	1419.780
263631.298	1413.187
263631.299	1406.593
263631.325	1399.267
263631.340	1393.407
263631.370	1388.278
263631.373	1384.615
263631.385	1384.615
263631.404	1383.883
263631.413	1385.348
263631.428	1386.813
263631.444	1389.011
263631.473	1389.744
263631.498	1390.476
263631.524	1390.476
263631.525	1391.209
263631.531	1390.476
263631.553	1389.744
263631.554	1389.011
263631.564	1388.278
263631.595	1387.546
263631.596	1386.813
263631.618	1386.081
263631.635	1386.081
263631.645	1386.081
263631.670	1385.348
263631.678	1384.615
263631.710	1384.615
263631.711	1386.081
263631.728	1387.546
263631.743	1388.278
263631.764	1389.011
263631.773	1388.278
263631.781	1387.546
263631.806	1386.813
263631.811	1386.813
263631.848	1385.348
263631.849	1386.081
263631.870	1385.348
263631.880	1386.081
263631.901	1387.546
263631.915	1387.546
263631.925	1387.546
263631.953	1389.744
263631.974	1393.407
263631.984	1399.267
263632.000	1405.861
263632.024	1414.652
263632.034	1421.978
263632.050	1426.374
263632.075	1425.641
263632.076	1423.443
263632.101	1419.780
263632.103	1413.919
263632.128	1406.593
263632.129	1400.000
263632.148	1393.407
263632.161	1388.278
263632.191	1383.883
263632.192	1380.220
263632.212	1379.487
263632.221	1381.685
263632.241	1384.615
263632.251	1389.011
263632.285	1392.674
263632.319	1396.337
263632.320	1397.070
263632.321	1396.337
263632.329	1394.872
263632.353	1391.941
263632.376	1389.011
263632.377	1386.813
263632.401	1384.615
263632.428	1383.883
263632.429	1383.883
263632.450	1386.081
263632.451	1387.546
263632.476	1389.011
263632.486	1389.744
263632.509	1391.209
263632.518	1392.674
263632.543	1392.674
263632.556	1392.674
263632.574	1391.941
263632.588	1390.476
263632.614	1389.011
263632.615	1386.813
263632.626	1386.813
263632.655	1386.813
263632.676	1387.546
263632.678	1386.813
263632.705	1388.278
263632.706	1389.011
263632.723	1389.011
263632.748	1389.744
263632.776	1394.872
263632.777	1402.198
263632.796	1411.722
263632.801	1419.048
263632.829	1425.641
263632.839	1427.106
263632.856	1425.641
263632.871	1421.245
263632.900	1415.385
263632.911	1409.524
263632.912	1403.663
263632.926	1397.802
263632.945	1392.674
263632.961	1388.278
263632.974	1383.883
263632.993	1381.685
263633.020	1382.418
263633.028	1383.883
263633.029	1388.278
263633.054	1391.209
263633.063	1394.139
263633.088	1394.139
263633.094	1394.872
263633.128	1394.872
263633.129	1393.407
263633.144	1391.209
263633.156	1390.476
263633.181	1389.011
263633.188	1387.546
263633.213	1386.081
263633.219	1386.081
263633.253	1386.813
263633.271	1388.278
263633.272	1389.744
263633.289	1391.209
263633.306	1391.209
263633.335	1390.476
263633.341	1389.011
263633.361	1388.278
263633.395	1388.278
263633.396	1389.744
263633.423	1389.744
263633.430	1389.744
263633.431	1389.011
263633.445	1389.011
263633.455	1389.011
263633.485	1389.011
263633.486	1389.011
263633.511	1390.476
263633.530	1393.407
263633.531	1400.000
263633.556	1407.326
263633.575	1415.385
263633.609	1424.908
263633.610	1430.037
263633.615	1430.769
263633.625	1427.839
263633.645	1422.711
263633.669	1416.850
263633.679	1410.256
263633.704	1402.930
263633.705	1395.604
263633.733	1389.744
263633.742	1384.615
263633.756	1382.418
263633.775	1382.418
263633.800	1384.615
263633.814	1387.546
263633.845	1391.209
263633.851	1393.407
263633.852	1396.337
263633.870	1397.070
263633.883	1397.070
263633.903	1396.337
263633.915	1395.604
263633.924	1394.139
263633.958	1391.941
263633.973	1389.011
263633.974	1387.546
263634.001	1385.348
263634.005	1384.615
263634.036	1385.348
263634.037	1386.813
263634.054	1387.546
263634.084	1388.278
263634.093	1388.278
263634.106	1389.011
263634.115	1389.011
263634.129	1389.744
263634.153	1389.744
263634.174	1391.209
263634.175	1391.941
263634.203	1390.476
263634.209	1388.278
263634.220	1387.546
263634.245	1386.813
263634.261	1388.278
263634.275	1391.209
263634.293	1396.337
263634.318	1402.930
263634.319	1413.187
263634.335	1421.978
263634.351	1428.571
263634.375	1431.502
263634.377	1431.502
263634.404	1427.106
263634.411	1422.711
263634.441	1414.652
263634.443	1407.326
263634.467	1400.000
263634.475	1394.139
263634.504	1389.011
263634.514	1385.348
263634.558	1383.150
263634.559	1384.615
263634.561	1386.813
263634.563	1390.476
263634.588	1394.139
263634.614	1397.802
263634.616	1399.267
263634.625	1399.267
263634.650	1397.070
263634.678	1396.337
263634.679	1392.674
263634.704	1391.941
263634.728	1389.744
263634.729	1388.278
263634.743	1386.081
263634.751	1387.546
263634.783	1386.813
263634.784	1386.813
263634.814	1387.546
263634.820	1387.546
263634.829	1388.278
263634.849	1387.546
263634.863	1387.546
263634.888	1389.744
263634.889	1389.011
263634.914	1390.476
263634.928	1389.744
263634.951	1390.476
263634.952	1389.744
263634.984	1390.476
263634.985	1390.476
263635.010	1393.407
263635.033	1398.535
263635.034	1405.861
263635.056	1413.919
263635.064	1421.978
263635.083	1427.106
263635.109	1429.304
263635.117	1427.106
263635.143	1423.443
263635.159	1416.117
263635.167	1408.791
263635.181	1401.465
263635.189	1393.407
263635.214	1386.813
263635.215	1383.883
263635.251	1382.418
263635.274	1382.418
263635.275	1385.348
263635.308	1389.011
263635.309	1391.209
263635.328	1394.872
263635.335	1396.337
263635.355	1397.802
263635.389	1397.802
263635.390	1397.070
263635.400	1394.872
263635.414	1393.407
263635.424	1391.941
263635.449	1390.476
263635.450	1388.278
263635.491	1387.546
263635.492	1386.813
263635.508	1386.813
263635.519	1386.813
263635.533	1386.813
263635.556	1387.546
263635.575	1388.278
263635.581	1389.011
263635.623	1389.011
263635.624	1389.011
263635.628	1389.744
263635.661	1389.011
263635.662	1390.476
263635.683	1391.209
263635.690	1394.872
263635.726	1400.000
263635.727	1408.791
263635.743	1419.780
263635.763	1427.839
263635.773	1434.432
263635.798	1436.630
263635.805	1435.165
263635.829	1430.769
263635.855	1423.443
263635.856	1416.117
263635.863	1406.593
263635.886	1397.802
263635.908	1391.209
263635.918	1386.081
263635.924	1381.685
263635.949	1380.952
263635.950	1382.418
263635.975	1386.081
263636.005	1389.744
263636.006	1394.872
263636.030	1397.802
263636.031	1399.267
263636.058	1399.267
263636.065	1398.535
263636.099	1396.337
263636.100	1394.139
263636.119	1390.476
263636.125	1389.011
263636.151	1386.813
263636.178	1386.081
263636.179	1385.348
263636.208	1385.348
263636.209	1386.081
263636.223	1388.278
263636.248	1389.011
263636.260	1390.476
263636.275	1390.476
263636.291	1391.209
263636.301	1389.011
263636.331	1388.278
263636.338	1388.278
263636.358	1389.744
263636.378	1393.407
263636.389	1399.267
263636.408	1408.791
263636.414	1421.978
263636.448	1434.432
263636.449	1443.223
263636.455	1447.619
263636.479	1447.619
263636.490	1442.491
263636.516	1434.432
263636.526	1425.641
263636.534	1418.315
263636.568	1409.524
263636.569	1402.198
263636.595	1394.872
263636.596	1389.744
263636.621	1384.615
263636.624	1385.348
263636.648	1386.813
263636.676	1389.744
263636.677	1393.407
263636.706	1397.070
263636.711	1397.802
263636.723	1398.535
263636.748	1397.802
263636.761	1397.070
263636.775	1394.872
263636.800	1393.407
263636.801	1389.011
263636.823	1387.546
263636.840	1386.081
263636.854	1385.348
263636.864	1386.081
263636.889	1386.081
263636.890	1386.813
263636.917	1389.011
263636.925	1388.278
263636.944	1389.011
263636.975	1388.278
263636.980	1388.278
263636.995	1389.011
263637.021	1390.476
263637.048	1393.407
263637.049	1398.535
263637.053	1407.326
263637.071	1419.048
263637.086	1432.967
263637.105	1444.689
263637.114	1451.282
263637.125	1454.212
263637.156	1450.549
263637.167	1445.421
263637.180	1436.630
263637.199	1428.571
263637.229	1419.048
263637.254	1411.722
263637.255	1404.396
263637.280	1397.802
263637.281	1391.941
263637.294	1387.546
263637.304	1383.883
263637.321	1385.348
263637.336	1387.546
263637.349	1391.209
263637.374	1394.139
263637.396	1397.070
263637.398	1397.802
263637.414	1397.070
263637.425	1394.872
263637.449	1392.674
263637.456	1390.476
263637.480	1387.546
263637.505	1385.348
263637.506	1384.615
263637.519	1383.150
263637.532	1383.150
263637.558	1383.883
263637.581	1385.348
263637.588	1385.348
263637.617	1386.813
263637.618	1386.081
263637.641	1385.348
263637.642	1384.615
263637.673	1386.081
263637.674	1385.348
263637.699	1387.546
263637.711	1391.209
263637.749	1400.733
263637.750	1412.454
263637.764	1427.106
263637.772	1441.758
263637.795	1454.212
263637.801	1459.341
263637.829	1460.806
263637.868	1454.212
263637.869	1446.154
263637.895	1433.700
263637.897	1424.176
263637.909	1415.385
263637.910	1408.791
263637.924	1402.198
263637.943	1395.604
263637.956	1389.744
263637.981	1385.348
263637.994	1382.418
263638.009	1381.685
263638.026	1383.150
263638.028	1386.081
263638.055	1389.011
263638.089	1391.209
263638.090	1391.941
263638.105	1391.209
263638.115	1389.744
263638.125	1389.011
263638.150	1386.813
263638.165	1384.615
263638.181	1383.150
263638.190	1381.685
263638.221	1381.685
263638.223	1382.418
263638.240	1384.615
263638.253	1384.615
263638.278	1386.081
263638.279	1386.081
263638.308	1385.348
263638.338	1385.348
263638.340	1385.348
263638.350	1383.883
263638.360	1383.883
263638.379	1383.883
263638.405	1383.883
263638.415	1383.883
263638.424	1384.615
263638.466	1389.011
263638.469	1394.139
263638.480	1402.198
263638.486	1415.385
263638.514	1427.106
263638.515	1437.363
263638.529	1444.689
263638.554	1448.352
263638.581	1447.619
263638.583	1441.758
263638.596	1435.165
263638.621	1429.304
263638.623	1421.245
263638.653	1414.652
263638.679	1408.059
263638.680	1401.465
263638.701	1396.337
263638.713	1389.744
263638.721	1386.081
263638.746	1383.883
263638.748	1383.150
263638.779	1383.150
263638.806	1383.883
263638.807	1386.081
263638.823	1387.546
263638.843	1387.546
263638.849	1386.813
263638.874	1386.081
263638.880	1384.615
263638.899	1383.883
263638.930	1383.883
263638.931	1382.418
263638.946	1383.150
263638.964	1383.150
263638.978	1383.150
263638.995	1384.615
263639.005	1383.150
263639.031	1382.418
263639.033	1380.952
263639.050	1380.220
263639.079	1381.685
263639.080	1380.952
263639.106	1380.952
263639.118	1381.685
263639.148	1383.883
263639.173	1384.615
263639.174	1386.081
263639.203	1385.348
263639.204	1385.348
263639.214	1385.348
263639.220	1386.081
263639.245	1386.081
263639.271	1386.081
263639.273	1386.081
263639.286	1385.348
263639.306	1386.081
263639.331	1389.011
263639.344	1395.604
263639.351	1405.128
263639.370	1416.117
263639.395	1425.641
263639.409	1432.234
263639.419	1435.897
263639.431	1436.630
263639.454	1433.700
263639.463	1428.571
263639.478	1423.443
263639.504	1417.582
263639.505	1412.454
263639.526	1406.593
263639.531	1401.465
263639.556	1394.872
263639.576	1391.209
263639.586	1387.546
263639.608	1384.615
263639.644	1381.685
263639.645	1380.952
263639.654	1380.952
263639.669	1383.150
263639.676	1385.348
263639.710	1386.813
263639.711	1386.813
263639.721	1387.546
263639.751	1387.546
263639.760	1385.348
263639.796	1383.883
263639.798	1382.418
263639.813	1381.685
263639.825	1381.685
263639.845	1381.685
263639.846	1382.418
263639.871	1382.418
263639.890	1383.150
263639.901	1383.150
263639.917	1383.883
263639.933	1384.615
263639.944	1384.615
263639.981	1385.348
263639.982	1384.615
263640.004	1383.150
263640.005	1383.883
263640.033	1383.883
263640.034	1385.348
263640.059	1385.348
263640.060	1386.081
263640.093	1386.081
263640.094	1386.081
263640.117	1386.081
263640.131	1386.081
263640.146	1384.615
263640.167	1383.150
263640.180	1382.418
263640.196	1383.883
263640.229	1385.348
263640.230	1386.813
263640.246	1388.278
263640.253	1389.744
263640.271	1392.674
263640.285	1399.267
263640.305	1406.593
263640.318	1415.385
263640.345	1422.711
263640.351	1429.304
263640.370	1432.967
263640.384	1432.234
263640.408	1430.037
263640.409	1426.374
263640.438	1421.978
263640.471	1418.315
263640.473	1412.454
263640.485	1408.059
263640.498	1403.663
263640.513	1397.070
263640.528	1391.941
263640.529	1387.546
263640.558	1385.348
263640.584	1383.883
263640.585	1383.883
263640.595	1386.081
263640.621	1387.546
263640.623	1389.744
263640.648	1390.476
263640.658	1391.209
263640.688	1390.476
263640.708	1389.011
263640.709	1387.546
263640.728	1385.348
263640.741	1383.883
263640.755	1383.150
263640.779	1381.685
263640.780	1381.685
263640.809	1381.685
263640.810	1383.150
263640.838	1383.150
263640.850	1385.348
263640.871	1385.348
263640.881	1386.081
263640.894	1385.348
263640.925	1386.081
263640.926	1386.081
263640.946	1386.081
263640.959	1386.081
263640.984	1386.081
263641.009	1386.081
263641.011	1387.546
263641.028	1387.546
263641.045	1386.081
263641.075	1384.615
263641.076	1383.883
263641.101	1383.883
263641.103	1383.883
263641.118	1386.081
263641.128	1387.546
263641.163	1389.011
263641.164	1391.209
263641.184	1395.604
263641.199	1399.267
263641.210	1408.059
263641.219	1416.117
263641.244	1424.176
263641.251	1428.571
263641.293	1431.502
263641.301	1431.502
263641.306	1427.839
263641.330	1424.908
263641.341	1420.513
263641.351	1415.385
263641.376	1410.256
263641.378	1403.663
263641.409	1397.802
263641.410	1394.139
263641.425	1389.744
263641.442	1386.813
263641.465	1385.348
263641.475	1385.348
263641.488	1386.081
263641.518	1388.278
263641.519	1389.011
263641.536	1390.476
263641.553	1390.476
263641.578	1389.744
263641.579	1389.011
263641.634	1388.278
263641.635	1387.546
263641.650	1387.546
263641.653	1386.813
263641.661	1386.081
263641.679	1385.348
263641.689	1386.081
263641.724	1384.615
263641.725	1385.348
263641.765	1386.813
263641.766	1387.546
263641.773	1387.546
263641.783	1387.546
263641.806	1387.546
263641.821	1387.546
263641.836	1388.278
263641.869	1388.278
263641.870	1387.546
263641.893	1387.546
263641.901	1384.615
263641.919	1385.348
263641.926	1386.081
263641.941	1385.348
263641.968	1386.081
263642.001	1386.813
263642.002	1388.278
263642.008	1388.278
263642.025	1388.278
263642.031	1388.278
263642.060	1390.476
263642.074	1394.872
263642.084	1400.733
263642.115	1407.326
263642.116	1415.385
263642.133	1421.978
263642.153	1427.839
263642.170	1430.769
263642.179	1428.571
263642.193	1425.641
263642.219	1421.978
263642.220	1417.582
263642.246	1410.989
263642.261	1405.128
263642.274	1398.535
263642.291	1393.407
263642.306	1389.744
263642.321	1385.348
263642.351	1381.685
263642.376	1380.952
263642.377	1380.952
263642.400	1382.418
263642.401	1385.348
263642.413	1388.278
263642.425	1389.744
263642.445	1390.476
263642.470	1391.209
263642.471	1389.744
263642.494	1389.011
263642.509	1388.278
263642.526	1388.278
263642.528	1386.813
263642.553	1386.081
263642.590	1385.348
263642.591	1384.615
263642.607	1384.615
263642.621	1383.883
263642.628	1383.883
263642.658	1383.883
263642.659	1384.615
263642.684	1385.348
263642.685	1386.813
263642.710	1386.081
263642.724	1387.546
263642.739	1386.813
263642.764	1386.813
263642.775	1384.615
263642.794	1384.615
263642.823	1384.615
263642.824	1384.615
263642.841	1384.615
263642.850	1384.615
263642.865	1385.348
263642.891	1386.081
263642.893	1389.011
263642.917	1391.941
263642.944	1397.070
263642.953	1403.663
263642.954	1410.989
263642.983	1416.850
263643.008	1419.780
263643.009	1420.513
263643.025	1421.245
263643.031	1419.048
263643.059	1413.919
263643.074	1409.524
263643.084	1403.663
263643.108	1398.535
263643.115	1394.139
263643.126	1389.744
263643.150	1386.081
263643.183	1384.615
263643.184	1383.883
263643.200	1383.883
263643.208	1383.883
263643.221	1385.348
263643.240	1386.081
263643.253	1389.011
263643.299	1389.744
263643.300	1391.209
263643.309	1389.744
263643.315	1389.011
263643.341	1387.546
263643.356	1386.081
263643.358	1383.150
263643.385	1382.418
263643.423	1380.952
263643.424	1382.418
263643.426	1382.418
263643.456	1383.150
263643.458	1383.883
263643.473	1385.348
263643.490	1386.081
263643.505	1386.813
263643.531	1386.813
263643.533	1386.081
263643.556	1386.081
263643.583	1386.081
263643.584	1386.081
263643.611	1386.813
263643.612	1386.813
263643.638	1386.813
263643.667	1385.348
263643.668	1385.348
263643.683	1384.615
263643.689	1385.348
263643.713	1388.278
263643.729	1394.872
263643.759	1402.930
263643.760	1413.919
263643.774	1423.443
263643.793	1428.571
263643.805	1430.769
263643.830	1429.304
263643.839	1424.176
263643.851	1419.048
263643.861	1413.187
263643.891	1405.128
263643.892	1398.535
263643.911	1392.674
263643.926	1388.278
263643.945	1384.615
263643.970	1383.883
263643.971	1383.150
263644.002	1383.883
263644.015	1386.081
263644.029	1389.011
263644.035	1391.209
263644.060	1392.674
263644.084	1391.209
263644.098	1389.744
263644.123	1387.546
263644.124	1386.081
263644.134	1386.081
263644.150	1386.813
263644.167	1387.546
263644.176	1386.813
263644.204	1387.546
263644.206	1388.278
263644.240	1387.546
263644.241	1386.813
263644.249	1386.813
263644.274	1386.081
263644.290	1386.813
263644.308	1386.081
263644.321	1385.348
263644.364	1385.348
263644.365	1385.348
263644.369	1385.348
263644.384	1386.813
263644.390	1387.546
263644.415	1388.278
263644.424	1389.011
263644.449	1389.744
263644.480	1391.209
263644.481	1393.407
263644.485	1397.802
263644.510	1404.396
263644.515	1411.722
263644.533	1418.315
263644.556	1423.443
263644.571	1425.641
263644.596	1425.641
263644.611	1421.978
263644.613	1416.850
263644.625	1409.524
263644.645	1402.198
263644.669	1397.070
263644.680	1392.674
263644.705	1388.278
263644.720	1385.348
263644.739	1384.615
263644.740	1384.615
263644.765	1386.813
263644.771	1387.546
263644.795	1390.476
263644.806	1391.941
263644.836	1393.407
263644.843	1394.139
263644.850	1392.674
263644.864	1390.476
263644.884	1389.011
263644.909	1386.813
263644.910	1386.813
263644.935	1386.081
263644.960	1386.081
263644.961	1386.813
263644.974	1388.278
263644.998	1389.011
263645.006	1390.476
263645.020	1390.476
263645.035	1389.744
263645.061	1389.744
263645.081	1390.476
263645.088	1390.476
263645.103	1390.476
263645.118	1391.209
263645.126	1391.209
263645.152	1389.744
263645.180	1389.011
263645.181	1390.476
263645.199	1394.139
263645.213	1400.000
263645.221	1408.059
263645.245	1417.582
263645.253	1424.908
263645.278	1430.037
263645.279	1432.967
263645.306	1432.234
263645.313	1429.304
263645.339	1423.443
263645.350	1417.582
263645.361	1410.256
263645.380	1403.663
263645.395	1397.070
263645.421	1391.941
263645.423	1386.813
263645.444	1383.883
263645.458	1383.883
263645.483	1383.883
263645.500	1385.348
263645.514	1387.546
263645.515	1389.011
263645.545	1390.476
263645.571	1391.941
263645.573	1391.941
263645.593	1393.407
263645.606	1393.407
263645.617	1391.941
263645.626	1389.011
263645.661	1386.081
263645.669	1383.883
263645.680	1382.418
263645.695	1383.150
263645.720	1383.883
263645.729	1383.883
263645.748	1386.081
263645.749	1386.813
263645.781	1387.546
263645.783	1387.546
263645.804	1387.546
263645.818	1386.813
263645.840	1385.348
263645.851	1385.348
263645.865	1386.813
263645.894	1386.813
263645.895	1388.278
263645.909	1391.209
263645.928	1397.070
263645.951	1405.861
263645.963	1415.385
263645.980	1424.176
263646.006	1432.234
263646.008	1438.828
263646.025	1441.758
263646.036	1438.828
263646.054	1432.967
263646.068	1425.641
263646.085	1416.850
263646.096	1409.524
263646.121	1402.198
263646.138	1395.604
263646.153	1391.209
263646.154	1387.546
263646.186	1383.883
263646.187	1383.883
263646.213	1384.615
263646.220	1385.348
263646.246	1388.278
263646.259	1391.941
263646.270	1393.407
263646.301	1391.941
263646.303	1390.476
263646.328	1389.744
263646.339	1387.546
263646.370	1387.546
263646.371	1386.813
263646.380	1387.546
263646.408	1387.546
263646.419	1387.546
263646.424	1386.081
263646.449	1384.615
263646.460	1384.615
263646.488	1386.081
263646.493	1386.081
263646.517	1386.081
263646.529	1386.081
263646.530	1386.081
263646.555	1386.813
263646.574	1387.546
263646.603	1388.278
263646.604	1389.011
263646.614	1390.476
263646.628	1394.139
263646.648	1399.267
263646.661	1408.059
263646.685	1416.117
263646.686	1424.908
263646.726	1430.769
263646.728	1435.165
263646.746	1434.432
263646.760	1429.304
263646.776	1424.176
263646.790	1416.850
263646.805	1409.524
263646.830	1401.465
263646.856	1394.872
263646.858	1388.278
263646.884	1383.150
263646.886	1380.220
263646.901	1377.289
263646.915	1378.755
263646.925	1379.487
263646.956	1383.150
263646.958	1386.081
263646.971	1389.011
263646.996	1391.209
263647.008	1391.941
263647.021	1391.941
263647.035	1391.209
263647.075	1387.546
263647.076	1385.348
263647.086	1382.418
263647.110	1380.952
263647.111	1381.685
263647.129	1382.418
263647.148	1381.685
263647.160	1382.418
263647.188	1383.883
263647.189	1384.615
263647.206	1384.615
263647.221	1384.615
263647.245	1384.615
263647.251	1386.081
263647.275	1386.081
263647.283	1386.813
263647.311	1386.813
263647.313	1388.278
263647.338	1391.941
263647.353	1397.802
263647.376	1405.128
263647.383	1414.652
263647.435	1423.443
263647.436	1428.571
263647.441	1430.037
263647.443	1427.106
263647.469	1421.245
263647.470	1413.919
263647.495	1403.663
263647.517	1396.337
263647.551	1387.546
263647.553	1382.418
263647.554	1378.755
263647.567	1377.289
263647.595	1375.824
263647.619	1377.289
263647.626	1379.487
263647.635	1383.150
263647.660	1386.081
263647.679	1389.011
263647.680	1389.744
263647.686	1391.209
263647.711	1389.744
263647.721	1389.011
263647.739	1387.546
263647.768	1386.813
263647.769	1384.615
263647.795	1383.150
263647.803	1381.685
263647.823	1381.685
263647.843	1382.418
263647.849	1383.883
263647.864	1384.615
263647.904	1385.348
263647.905	1384.615
263647.911	1384.615
263647.926	1383.150
263647.944	1383.883
263647.958	1383.883
263647.980	1384.615
263647.995	1385.348
263648.020	1389.744
263648.021	1394.139
263648.035	1401.465
263648.060	1410.256
263648.071	1419.048
263648.089	1427.106
263648.125	1432.234
263648.126	1432.234
263648.151	1430.769
263648.153	1425.641
263648.164	1420.513
263648.179	1413.187
263648.195	1404.396
263648.211	1397.070
263648.223	1389.011
263648.263	1382.418
263648.264	1379.487
263648.274	1377.289
263648.281	1379.487
263648.306	1381.685
263648.325	1386.081
263648.344	1390.476
263648.349	1392.674
263648.376	1391.941
263648.384	1392.674
263648.396	1392.674
263648.418	1391.941
263648.419	1389.744
263648.444	1389.011
263648.459	1386.813
263648.484	1386.081
263648.499	1384.615
263648.508	1383.883
263648.528	1385.348
263648.529	1386.081
263648.553	1386.081
263648.578	1388.278
263648.583	1388.278
263648.609	1386.813
263648.610	1385.348
263648.625	1386.081
263648.651	1386.813
263648.676	1388.278
263648.681	1391.209
263648.706	1396.337
263648.708	1402.930
263648.733	1411.722
263648.770	1419.780
263648.771	1429.304
263648.781	1435.897
263648.796	1438.828
263648.798	1437.363
263648.823	1432.234
263648.854	1424.908
263648.860	1416.117
263648.870	1408.059
263648.883	1400.000
263648.911	1391.941
263648.913	1386.081
263648.924	1380.952
263648.958	1380.220
263648.959	1380.952
263648.981	1383.150
263648.983	1386.813
263649.004	1391.209
263649.019	1394.872
263649.033	1396.337
263649.058	1396.337
263649.094	1396.337
263649.095	1393.407
263649.097	1390.476
263649.126	1386.813
263649.128	1385.348
263649.149	1384.615
263649.159	1384.615
263649.185	1383.883
263649.186	1386.081
263649.209	1386.081
263649.221	1387.546
263649.246	1386.813
263649.248	1386.813
263649.273	1387.546
263649.286	1389.011
263649.318	1389.011
263649.319	1389.744
263649.343	1388.278
263649.351	1388.278
263649.363	1388.278
263649.388	1390.476
263649.389	1394.872
263649.411	1402.930
263649.443	1413.919
263649.450	1424.908
263649.460	1434.432
263649.476	1441.758
263649.488	1442.491
263649.513	1438.828
263649.514	1433.700
263649.539	1426.374
263649.564	1419.048
263649.575	1409.524
263649.589	1400.733
263649.599	1391.941
263649.618	1386.081
263649.633	1381.685
263649.649	1380.952
263649.678	1381.685
263649.679	1384.615
263649.699	1387.546
263649.713	1390.476
263649.723	1391.941
263649.748	1391.941
263649.749	1393.407
263649.778	1391.941
263649.806	1391.941
263649.809	1391.209
263649.815	1389.744
263649.839	1387.546
263649.849	1386.081
263649.868	1385.348
263649.884	1386.081
263649.910	1386.813
263649.911	1387.546
263649.919	1387.546
263649.944	1388.278
263649.955	1388.278
263649.979	1387.546
263649.986	1386.813
263650.011	1387.546
263650.013	1387.546
263650.038	1388.278
263650.068	1387.546
263650.083	1388.278
263650.084	1387.546
263650.115	1388.278
263650.117	1387.546
263650.150	1388.278
263650.151	1388.278
263650.155	1388.278
263650.180	1389.744
263650.204	1394.139
263650.205	1400.733
263650.218	1413.187
263650.243	1424.908
263650.274	1436.630
263650.275	1443.223
263650.294	1447.619
263650.310	1445.421
263650.326	1440.293
263650.328	1432.234
263650.353	1424.908
263650.383	1416.850
263650.384	1410.989
263650.390	1405.128
263650.419	1397.802
263650.420	1392.674
263650.445	1388.278
263650.463	1385.348
263650.474	1385.348
263650.499	1386.081
263650.511	1388.278
263650.526	1389.744
263650.531	1392.674
263650.555	1393.407
263650.574	1394.139
263650.585	1392.674
263650.621	1391.941
263650.623	1389.744
263650.626	1388.278
263650.664	1388.278
263650.665	1386.813
263650.690	1386.081
263650.703	1386.081
263650.709	1385.348
263650.743	1386.081
263650.744	1386.081
263650.759	1386.813
263650.776	1386.813
263650.783	1387.546
263650.808	1387.546
263650.810	1388.278
263650.856	1388.278
263650.864	1388.278
263650.867	1388.278
263650.883	1389.011
263650.900	1387.546
263650.924	1386.813
263650.925	1385.348
263650.945	1386.081
263650.983	1387.546
263650.984	1388.278
263650.986	1387.546
263651.013	1388.278
263651.019	1388.278
263651.035	1390.476
263651.054	1394.872
263651.065	1402.198
263651.091	1411.722
263651.092	1422.711
263651.115	1431.502
263651.128	1439.560
263651.153	1442.491
263651.154	1441.758
263651.179	1435.897
263651.215	1428.571
263651.216	1421.245
263651.220	1413.187
263651.245	1405.861
263651.260	1400.733
263651.274	1394.872
263651.305	1391.209
263651.306	1387.546
263651.331	1386.081
263651.358	1383.883
263651.359	1385.348
263651.369	1386.813
263651.385	1388.278
263651.401	1390.476
263651.411	1391.941
263651.440	1391.941
263651.455	1392.674
263651.467	1391.941
263651.474	1391.209
263651.500	1389.744
263651.501	1389.744
263651.526	1387.546
263651.528	1386.081
263651.556	1384.615
263651.573	1384.615
263651.583	1383.883
263651.603	1384.615
263651.615	1385.348
263651.625	1386.081
263651.650	1386.813
263651.680	1387.546
263651.694	1388.278
263651.701	1389.744
263651.711	1388.278
263651.724	1389.011
263651.741	1388.278
263651.749	1388.278
263651.774	1388.278
263651.805	1389.011
263651.817	1387.546
263651.818	1387.546
263651.839	1386.813
263651.850	1387.546
263651.860	1387.546
263651.885	1387.546
263651.895	1389.744
263651.924	1391.209
263651.925	1392.674
263651.950	1397.070
263651.951	1402.198
263651.976	1411.722
263651.996	1421.245
263652.006	1429.304
263652.036	1435.897
263652.038	1438.095
263652.051	1435.897
263652.076	1431.502
263652.085	1424.908
263652.110	1418.315
263652.117	1412.454
263652.164	1406.593
263652.165	1399.267
263652.169	1395.604
263652.179	1391.209
263652.190	1387.546
263652.211	1384.615
263652.221	1383.883
263652.246	1386.081
263652.248	1389.011
263652.273	1391.209
263652.286	1394.139
263652.310	1393.407
263652.311	1394.872
263652.334	1393.407
263652.359	1390.476
263652.360	1388.278
263652.389	1388.278
263652.401	1386.813
263652.411	1385.348
263652.421	1385.348
263652.446	1386.081
263652.462	1386.081
263652.476	1385.348
263652.514	1386.081
263652.515	1385.348
263652.531	1385.348
263652.533	1386.813
263652.554	1386.813
263652.568	1388.278
263652.599	1387.546
263652.600	1387.546
263652.625	1387.546
263652.626	1388.278
263652.651	1389.011
263652.667	1390.476
263652.678	1389.011
263652.701	1389.011
263652.708	1387.546
263652.719	1387.546
263652.748	1386.813
263652.759	1387.546
263652.773	1390.476
263652.785	1394.872
263652.813	1400.733
263652.826	1408.791
263652.833	1416.850
263652.861	1425.641
263652.878	1430.769
263652.880	1435.165
263652.894	1434.432
263652.911	1430.769
263652.926	1424.176
263652.943	1417.582
263652.975	1410.256
263652.976	1403.663
263652.996	1397.070
263653.011	1392.674
263653.026	1388.278
263653.028	1386.081
263653.073	1386.081
263653.074	1386.813
263653.105	1388.278
263653.106	1389.744
263653.120	1391.209
263653.121	1394.139
263653.146	1394.139
263653.168	1394.139
263653.178	1392.674
263653.203	1392.674
263653.204	1389.744
263653.229	1389.011
263653.254	1387.546
263653.268	1386.081
263653.269	1385.348
263653.290	1386.813
263653.301	1386.813
263653.330	1388.278
263653.345	1389.744
263653.360	1391.209
263653.361	1391.209
263653.386	1390.476
263653.388	1389.744
263653.413	1388.278
263653.428	1386.813
263653.454	1386.813
263653.455	1386.813
263653.479	1386.081
263653.485	1386.081
263653.504	1386.813
263653.519	1388.278
263653.534	1389.744
263653.570	1389.744
263653.571	1390.476
263653.584	1392.674
263653.596	1397.070
263653.623	1404.396
263653.624	1413.919
263653.653	1422.711
263653.654	1428.571
263653.679	1430.769
263653.696	1431.502
263653.709	1427.839
263653.719	1423.443
263653.744	1417.582
263653.759	1410.256
263653.778	1403.663
263653.821	1398.535
263653.823	1391.941
263653.823	1386.813
263653.840	1382.418
263653.850	1381.685
263653.875	1382.418
263653.876	1384.615
263653.893	1387.546
263653.919	1390.476
263653.920	1393.407
263653.940	1395.604
263653.955	1395.604
263653.980	1394.872
263653.988	1393.407
263654.011	1391.209
263654.013	1389.011
263654.039	1387.546
263654.054	1386.813
263654.064	1386.081
263654.085	1384.615
263654.095	1384.615
263654.119	1384.615
263654.125	1386.813
263654.163	1387.546
263654.171	1388.278
263654.181	1387.546
263654.196	1387.546
263654.213	1386.813
263654.221	1388.278
263654.250	1389.011
263654.251	1389.011
263654.286	1389.011
263654.288	1389.011
263654.303	1389.744
263654.313	1391.209
263654.335	1392.674
263654.351	1397.070
263654.376	1403.663
263654.378	1411.722
263654.403	1419.048
263654.414	1426.374
263654.429	1430.037
263654.445	1430.769
263654.458	1426.374
263654.481	1421.245
263654.483	1413.187
263654.511	1405.861
263654.513	1399.267
263654.538	1394.139
263654.563	1390.476
263654.579	1386.813
263654.580	1384.615
263654.605	1383.883
263654.631	1384.615
263654.633	1386.813
263654.646	1390.476
263654.670	1393.407
263654.683	1394.139
263654.696	1394.139
263654.714	1394.139
263654.715	1393.407
263654.740	1391.941
263654.765	1389.744
263654.773	1388.278
263654.786	1388.278
263654.804	1389.011
263654.818	1389.011
263654.830	1387.546
263654.855	1387.546
263654.878	1386.081
263654.879	1386.081
263654.899	1385.348
263654.913	1386.813
263654.923	1387.546
263654.948	1389.011
263654.967	1388.278
263654.991	1389.011
263654.993	1388.278
263655.003	1389.011
263655.033	1389.744
263655.034	1391.209
263655.055	1393.407
263655.065	1397.802
263655.108	1404.396
263655.109	1414.652
263655.115	1422.711
263655.125	1429.304
263655.153	1430.769
263655.171	1429.304
263655.178	1424.908
263655.201	1418.315
263655.228	1410.989
263655.229	1405.128
263655.239	1397.070
263655.272	1391.209
263655.273	1385.348
263655.289	1382.418
263655.308	1381.685
263655.344	1381.685
263655.350	1383.150
263655.351	1386.813
263655.372	1390.476
263655.381	1393.407
263655.393	1394.872
263655.411	1394.872
263655.425	1394.139
263655.460	1392.674
263655.461	1391.209
263655.476	1389.011
263655.501	1389.744
263655.503	1388.278
263655.528	1386.081
263655.549	1385.348
263655.550	1383.883
263655.588	1384.615
263655.593	1383.150
263655.608	1383.150
263655.618	1384.615
263655.636	1385.348
263655.650	1386.081
263655.674	1387.546
263655.708	1387.546
263655.709	1388.278
263655.718	1390.476
263655.719	1393.407
263655.744	1397.802
263655.761	1405.128
263655.796	1413.187
263655.798	1422.711
263655.823	1429.304
263655.824	1432.967
263655.848	1432.967
263655.850	1429.304
263655.861	1422.711
263655.885	1414.652
263655.895	1406.593
263655.912	1400.000
263655.936	1392.674
263655.945	1387.546
263655.970	1383.883
263655.971	1381.685
263655.988	1382.418
263656.004	1384.615
263656.044	1386.813
263656.060	1391.941
263656.061	1394.872
263656.066	1396.337
263656.084	1395.604
263656.100	1393.407
263656.114	1391.209
263656.126	1389.744
263656.151	1387.546
263656.178	1386.081
263656.181	1384.615
263656.200	1384.615
263656.210	1384.615
263656.219	1384.615
263656.245	1386.081
263656.260	1387.546
263656.293	1388.278
263656.299	1388.278
263656.308	1387.546
263656.318	1386.813
263656.328	1386.813
263656.353	1388.278
263656.368	1387.546
263656.381	1389.744
263656.409	1391.209
263656.435	1394.139
263656.436	1399.267
263656.455	1407.326
263656.469	1416.850
263656.474	1426.374
263656.493	1432.234
263656.525	1435.165
263656.526	1433.700
263656.541	1429.304
263656.552	1422.711
263656.575	1413.919
263656.585	1405.128
263656.595	1397.802
263656.617	1390.476
263656.641	1384.615
263656.643	1380.220
263656.674	1378.755
263656.675	1380.952
263656.700	1385.348
263656.709	1388.278
263656.719	1391.941
263656.753	1394.139
263656.776	1396.337
263656.778	1395.604
263656.795	1396.337
263656.801	1394.872
263656.826	1392.674
263656.840	1389.011
263656.849	1387.546
263656.874	1385.348
263656.893	1383.883
263656.894	1383.883
263656.913	1384.615
263656.923	1386.813
263656.942	1387.546
263656.965	1388.278
263656.990	1389.011
263656.991	1390.476
263657.005	1390.476
263657.017	1389.744
263657.045	1389.011
263657.074	1387.546
263657.099	1386.081
263657.100	1386.813
263657.124	1391.941
263657.125	1400.000
263657.126	1411.722
263657.148	1423.443
263657.158	1432.967
263657.183	1438.095
263657.225	1441.026
263657.226	1438.095
263657.240	1432.234
263657.241	1424.908
263657.254	1416.117
263657.279	1408.791
263657.280	1400.733
263657.309	1392.674
263657.315	1388.278
263657.330	1384.615
263657.354	1383.150
263657.373	1383.883
263657.383	1386.081
263657.406	1390.476
263657.408	1394.139
263657.425	1398.535
263657.459	1399.267
263657.460	1399.267
263657.478	1397.802
263657.498	1394.872
263657.508	1391.209
263657.533	1388.278
263657.549	1386.081
263657.575	1383.150
263657.576	1381.685
263657.602	1382.418
263657.603	1383.883
263657.631	1385.348
263657.633	1386.813
263657.648	1388.278
263657.659	1389.011
263657.678	1388.278
263657.706	1389.744
263657.708	1389.744
263657.733	1389.744
263657.754	1389.744
263657.765	1391.209
263657.778	1391.941
263657.791	1395.604
263657.801	1400.733
263657.827	1410.256
263657.836	1421.978
263657.856	1434.432
263657.871	1443.956
263657.898	1449.817
263657.906	1450.549
263657.910	1446.886
263657.936	1438.095
263657.950	1429.304
263657.961	1420.513
263657.977	1413.187
263658.000	1405.128
263658.001	1398.535
263658.029	1391.941
263658.055	1386.813
263658.056	1383.150
263658.074	1383.883
263658.091	1386.813
263658.109	1391.209
263658.115	1394.872
263658.125	1396.337
263658.153	1397.802
263658.179	1398.535
263658.180	1396.337
263658.188	1394.872
263658.213	1392.674
263658.219	1390.476
263658.244	1388.278
263658.263	1386.081
263658.273	1385.348
263658.300	1386.081
263658.305	1386.813
263658.331	1388.278
263658.333	1387.546
263658.359	1387.546
263658.360	1387.546
263658.379	1388.278
263658.406	1388.278
263658.408	1389.011
263658.421	1389.011
263658.446	1389.744
263658.464	1389.011
263658.474	1389.744
263658.501	1392.674
263658.503	1399.267
263658.539	1408.791
263658.541	1421.245
263658.565	1435.165
263658.566	1446.154
263658.592	1452.747
263658.593	1454.212
263658.619	1450.549
263658.625	1443.956
263658.655	1433.700
263658.664	1425.641
263658.679	1416.850
263658.689	1408.059
263658.708	1400.733
263658.722	1393.407
263658.745	1386.081
263658.775	1382.418
263658.776	1381.685
263658.790	1383.883
263658.805	1386.081
263658.813	1389.011
263658.831	1391.209
263658.855	1393.407
263658.880	1395.604
263658.881	1394.139
263658.901	1392.674
263658.915	1391.209
263658.933	1390.476
263658.946	1389.011
263658.955	1386.813
263658.981	1385.348
263658.983	1383.883
263659.008	1383.150
263659.038	1383.150
263659.049	1383.150
263659.050	1384.615
263659.068	1385.348
263659.084	1386.081
263659.124	1387.546
263659.125	1387.546
263659.130	1388.278
263659.149	1388.278
263659.169	1387.546
263659.184	1386.813
263659.185	1387.546
263659.210	1388.278
263659.248	1391.941
263659.249	1397.070
263659.264	1406.593
263659.273	1419.780
263659.289	1433.700
263659.304	1443.956
263659.318	1449.084
263659.330	1449.084
263659.363	1445.421
263659.364	1438.095
263659.379	1430.037
263659.408	1421.245
263659.417	1413.919
263659.423	1405.861
263659.448	1398.535
263659.486	1391.941
263659.488	1387.546
263659.499	1383.150
263659.506	1380.952
263659.523	1380.952
263659.535	1383.150
263659.555	1384.615
263659.565	1386.813
263659.597	1389.744
263659.605	1391.209
263659.630	1390.476
263659.631	1389.744
263659.649	1388.278
263659.669	1388.278
263659.678	1386.813
263659.713	1385.348
263659.714	1382.418
263659.729	1381.685
263659.744	1380.220
263659.759	1379.487
263659.774	1379.487
263659.793	1380.220
263659.805	1380.220
263659.837	1382.418
263659.837	1384.615
263659.848	1386.081
263659.873	1386.081
263659.880	1386.081
263659.904	1386.081
263659.914	1385.348
263659.928	1385.348
263659.953	1385.348
263659.963	1383.883
263659.973	1383.150
263659.998	1382.418
263660.005	1382.418
263660.030	1383.150
263660.041	1386.081
263660.069	1388.278
263660.070	1394.139
263660.095	1402.930
263660.105	1414.652
263660.118	1425.641
263660.128	1436.630
263660.153	1442.491
263660.189	1444.689
263660.190	1441.026
263660.198	1437.363
263660.210	1430.037
263660.220	1423.443
263660.245	1415.385
263660.271	1408.059
263660.273	1400.000
263660.298	1394.872
263660.314	1389.744
263660.320	1386.081
263660.339	1381.685
263660.348	1380.220
263660.373	1378.755
263660.379	1380.220
263660.404	1382.418
263660.429	1384.615
263660.430	1386.813
263660.444	1389.011
263660.454	1388.278
263660.478	1387.546
263660.496	1386.081
263660.510	1383.883
263660.517	1382.418
263660.543	1381.685
263660.558	1380.220
263660.578	1380.952
263660.584	1380.952
263660.611	1381.685
263660.620	1382.418
263660.629	1383.150
263660.654	1383.150
263660.683	1383.883
263660.684	1383.150
263660.701	1383.150
263660.710	1382.418
263660.726	1383.150
263660.740	1383.883
263660.780	1385.348
263660.781	1385.348
263660.790	1385.348
263660.803	1386.081
263660.830	1386.081
263660.831	1386.813
263660.850	1389.011
263660.860	1389.744
263660.891	1390.476
263660.893	1388.278
263660.918	1387.546
263660.919	1384.615
263660.944	1383.883
263660.959	1382.418
263660.974	1380.952
263660.999	1380.952
263661.030	1384.615
263661.031	1391.209
263661.048	1400.733
263661.054	1410.989
263661.067	1422.711
263661.093	1431.502
263661.108	1437.363
263661.138	1437.363
263661.139	1435.165
263661.151	1430.037
263661.158	1424.908
263661.183	1417.582
263661.191	1411.722
263661.210	1405.861
263661.222	1400.733
263661.253	1395.604
263661.254	1389.744
263661.279	1384.615
263661.280	1382.418
263661.308	1381.685
263661.313	1383.150
263661.341	1384.615
263661.370	1386.081
263661.371	1388.278
263661.378	1389.744
263661.390	1389.011
263661.421	1390.476
263661.423	1389.011
263661.448	1387.546
263661.478	1385.348
263661.479	1383.883
263661.501	1383.883
263661.503	1383.150
263661.528	1382.418
263661.554	1382.418
263661.555	1382.418
263661.570	1379.487
263661.603	1378.022
263661.619	1378.755
263661.621	1378.755
263661.638	1379.487
263661.648	1381.685
263661.663	1383.883
263661.693	1385.348
263661.694	1386.813
263661.726	1386.813
263661.728	1387.546
263661.746	1388.278
263661.748	1388.278
263661.771	1389.011
263661.781	1388.278
263661.801	1388.278
263661.843	1387.546
263661.844	1385.348
263661.854	1384.615
263661.869	1383.883
263661.883	1383.883
263661.906	1383.150
263661.908	1382.418
263661.921	1383.150
263661.951	1385.348
263661.968	1387.546
263661.972	1391.941
263661.996	1397.802
263662.006	1405.128
263662.031	1413.919
263662.044	1421.245
263662.053	1427.106
263662.079	1429.304
263662.087	1430.769
263662.102	1427.839
263662.119	1424.176
263662.141	1419.780
263662.158	1415.385
263662.165	1410.256
263662.191	1405.128
263662.193	1399.267
263662.218	1393.407
263662.219	1386.813
263662.244	1383.150
263662.265	1380.952
263662.271	1380.952
263662.286	1381.685
263662.319	1384.615
263662.327	1386.081
263662.336	1388.278
263662.353	1389.011
263662.376	1389.744
263662.378	1389.011
263662.395	1386.813
263662.420	1386.081
263662.443	1384.615
263662.444	1383.150
263662.456	1383.150
263662.481	1382.418
263662.482	1383.150
263662.506	1382.418
263662.518	1382.418
263662.549	1381.685
263662.566	1382.418
263662.573	1380.952
263662.583	1381.685
263662.601	1381.685
263662.617	1382.418
263662.626	1383.883
263662.651	1383.883
263662.679	1384.615
263662.680	1385.348
263662.693	1385.348
263662.717	1383.883
263662.718	1382.418
263662.749	1382.418
263662.750	1383.150
263662.789	1384.615
263662.795	1384.615
263662.825	1384.615
263662.851	1383.883
263662.853	1384.615
263662.856	1385.348
263662.875	1386.813
263662.876	1391.941
263662.908	1397.070
263662.909	1402.930
263662.924	1412.454
263662.949	1419.048
263662.950	1426.374
263662.975	1428.571
263662.985	1430.037
263663.017	1427.839
263663.018	1424.176
263663.043	1418.315
263663.053	1413.187
263663.078	1406.593
263663.084	1400.000
263663.104	1394.139
263663.134	1388.278
263663.149	1383.883
263663.151	1381.685
263663.165	1380.952
263663.181	1382.418
263663.200	1384.615
263663.213	1386.813
263663.223	1388.278
263663.253	1389.011
263663.254	1389.744
263663.269	1389.011
263663.284	1388.278
263663.309	1386.813
263663.310	1385.348
263663.328	1383.883
263663.354	1382.418
263663.380	1381.685
263663.381	1382.418
263663.390	1383.150
263663.414	1381.685
263663.424	1383.150
263663.448	1383.883
263663.478	1384.615
263663.479	1384.615
263663.504	1386.081
263663.505	1386.813
263663.529	1387.546
263663.545	1387.546
263663.559	1387.546
263663.576	1387.546
263663.586	1388.278
263663.620	1386.813
263663.621	1386.813
263663.640	1385.348
263663.650	1385.348
263663.667	1383.883
263663.681	1385.348
263663.698	1384.615
263663.725	1385.348
263663.727	1386.081
263663.749	1388.278
263663.774	1390.476
263663.775	1397.070
263663.793	1403.663
263663.806	1412.454
263663.817	1420.513
263663.849	1425.641
263663.850	1427.839
263663.860	1427.839
263663.886	1423.443
263663.888	1417.582
263663.913	1411.722
263663.923	1405.861
263663.944	1398.535
263663.969	1392.674
263663.970	1386.081
263663.984	1381.685
263664.010	1380.952
263664.029	1380.220
263664.045	1383.150
263664.051	1386.081
263664.081	1388.278
263664.083	1390.476
263664.119	1391.209
263664.120	1390.476
263664.146	1390.476
263664.155	1389.744
263664.171	1388.278
263664.178	1386.813
263664.210	1386.813
263664.213	1385.348
263664.223	1385.348
263664.243	1385.348
263664.260	1384.615
263664.270	1385.348
263664.289	1385.348
263664.326	1386.813
263664.329	1386.813
263664.330	1386.081
263664.349	1386.813
263664.364	1386.813
263664.390	1386.081
263664.400	1386.813
263664.414	1385.348
263664.449	1386.081
263664.450	1386.813
263664.465	1386.813
263664.475	1386.813
263664.484	1387.546
263664.517	1387.546
263664.518	1387.546
263664.558	1389.011
263664.559	1393.407
263664.576	1397.070
263664.592	1402.930
263664.608	1410.256
263664.617	1417.582
263664.630	1424.176
263664.650	1427.839
263664.681	1428.571
263664.683	1426.374
263664.705	1420.513
263664.722	1414.652
263664.727	1407.326
263664.764	1400.733
263664.765	1393.407
263664.790	1389.011
263664.791	1384.615
263664.805	1382.418
263664.821	1380.220
263664.830	1381.685
263664.854	1381.685
263664.868	1383.883
263664.885	1386.081
263664.886	1389.744
263664.918	1391.209
263664.919	1393.407
263664.948	1392.674
263664.977	1391.941
263664.985	1389.744
263664.999	1388.278
263665.005	1385.348
263665.030	1383.883
263665.041	1382.418
263665.053	1382.418
263665.075	1383.883
263665.089	1384.615
263665.107	1385.348
263665.121	1386.813
263665.152	1387.546
263665.158	1388.278
263665.174	1388.278
263665.183	1389.011
263665.199	1388.278
263665.213	1386.813
263665.219	1386.081
263665.258	1384.615
263665.274	1383.883
263665.275	1386.081
263665.300	1386.081
263665.301	1388.278
263665.326	1390.476
263665.328	1395.604
263665.357	1402.930
263665.358	1413.919
263665.386	1423.443
263665.413	1431.502
263665.414	1435.165
263665.439	1435.165
263665.440	1430.769
263665.470	1425.641
263665.471	1417.582
263665.501	1410.256
263665.514	1403.663
263665.525	1398.535
263665.540	1391.941
263665.555	1387.546
263665.575	1384.615
263665.584	1383.883
263665.623	1384.615
263665.624	1386.081
263665.639	1387.546
263665.649	1389.011
263665.667	1391.209
263665.676	1392.674
263665.695	1393.407
263665.710	1391.941
263665.739	1391.209
263665.746	1389.011
263665.756	1386.813
263665.781	1386.081
263665.786	1385.348
263665.806	1384.615
263665.815	1383.883
263665.829	1383.883
263665.855	1383.883
263665.868	1386.081
263665.883	1386.813
263665.901	1387.546
263665.911	1387.546
263665.925	1388.278
263665.941	1387.546
263665.967	1387.546
263665.981	1386.081
263665.993	1386.081
263666.020	1385.348
263666.021	1386.813
263666.048	1387.546
263666.055	1391.209
263666.080	1398.535
263666.081	1409.524
263666.106	1421.978
263666.119	1434.432
263666.146	1441.758
263666.148	1443.956
263666.164	1441.758
263666.179	1435.165
263666.205	1427.106
263666.206	1418.315
263666.223	1408.791
263666.246	1401.465
263666.265	1394.872
263666.271	1390.476
263666.295	1386.813
263666.305	1384.615
263666.339	1383.883
263666.340	1386.081
263666.348	1386.813
263666.363	1390.476
263666.381	1391.941
263666.391	1393.407
263666.418	1393.407
263666.419	1391.941
263666.451	1390.476
263666.464	1389.744
263666.474	1388.278
263666.499	1387.546
263666.506	1386.081
263666.530	1384.615
263666.565	1383.883
263666.566	1383.150
263666.578	1383.150
263666.579	1383.150
263666.605	1383.883
263666.614	1384.615
263666.635	1385.348
263666.645	1385.348
263666.678	1385.348
263666.703	1385.348
263666.724	1386.081
263666.725	1386.081
263666.727	1386.813
263666.743	1389.011
263666.765	1392.674
263666.771	1400.000
263666.796	1410.256
263666.819	1423.443
263666.820	1434.432
263666.844	1443.223
263666.845	1446.886
263666.870	1445.421
263666.880	1441.026
263666.913	1432.234
263666.914	1424.176
263666.929	1416.117
263666.945	1408.791
263666.969	1402.198
263666.970	1394.872
263666.995	1389.744
263667.006	1385.348
263667.015	1383.150
263667.042	1380.952
263667.050	1383.150
263667.075	1385.348
263667.085	1388.278
263667.103	1390.476
263667.115	1391.209
263667.156	1391.209
263667.158	1390.476
263667.171	1389.744
263667.186	1389.744
263667.198	1388.278
263667.213	1386.813
263667.222	1386.813
263667.246	1386.081
263667.278	1385.348
263667.285	1385.348
263667.286	1383.883
263667.311	1383.883
263667.331	1384.615
263667.333	1385.348
263667.348	1385.348
263667.386	1386.081
263667.388	1385.348
263667.409	1385.348
263667.410	1385.348
263667.423	1387.546
263667.443	1389.011
263667.468	1394.139
263667.476	1401.465
263667.505	1413.187
263667.506	1424.176
263667.524	1434.432
263667.553	1442.491
263667.554	1446.886
263667.579	1445.421
263667.580	1439.560
263667.613	1431.502
263667.614	1422.711
263667.643	1414.652
263667.644	1407.326
263667.664	1400.000
263667.678	1394.139
263667.701	1388.278
263667.713	1384.615
263667.720	1382.418
263667.753	1382.418
263667.754	1383.150
263667.769	1386.081
263667.794	1389.744
263667.801	1392.674
263667.821	1393.407
263667.831	1393.407
263667.871	1392.674
263667.873	1391.209
263667.888	1389.744
263667.901	1387.546
263667.918	1384.615
263667.925	1383.150
263667.951	1380.952
263667.953	1380.952
263667.978	1380.220
263668.003	1383.150
263668.004	1383.883
263668.024	1385.348
263668.048	1386.813
263668.049	1386.813
263668.074	1386.081
263668.101	1386.813
263668.109	1386.081
263668.110	1386.813
263668.129	1387.546
263668.154	1388.278
263668.165	1389.744
263668.182	1391.209
263668.214	1393.407
263668.215	1397.070
263668.223	1405.128
263668.245	1418.315
263668.268	1430.769
263668.274	1443.223
263668.295	1449.817
263668.309	1452.747
263668.334	1447.619
263668.335	1439.560
263668.346	1431.502
263668.372	1421.978
263668.380	1415.385
263668.390	1409.524
263668.417	1403.663
263668.421	1397.070
263668.448	1391.209
263668.466	1387.546
263668.476	1385.348
263668.502	1384.615
263668.503	1386.081
263668.529	1388.278
263668.544	1389.744
263668.563	1391.941
263668.564	1391.941
263668.596	1391.209
263668.598	1390.476
263668.628	1389.744
263668.645	1388.278
263668.646	1387.546
263668.669	1386.813
263668.694	1386.081
263668.714	1385.348
263668.714	1386.081
263668.729	1386.081
263668.746	1386.081
263668.751	1386.081
263668.776	1386.081
263668.778	1385.348
263668.803	1386.081
263668.818	1386.081
263668.833	1387.546
263668.856	1386.813
263668.869	1386.081
263668.882	1386.081
263668.893	1386.813
263668.926	1386.813
263668.928	1386.813
263668.940	1386.081
263668.963	1386.813
263668.988	1386.813
263668.993	1386.813
263669.010	1387.546
263669.038	1389.744
263669.053	1394.872
263669.054	1404.396
263669.071	1415.385
263669.085	1428.571
263669.103	1441.026
263669.114	1448.352
263669.136	1450.549
263669.170	1449.084
263669.171	1443.223
263669.179	1435.897
263669.185	1427.839
263669.210	1419.780
263669.238	1412.454
263669.239	1404.396
263669.253	1397.070
263669.280	1392.674
263669.291	1388.278
263669.308	1386.813
263669.324	1386.081
263669.325	1385.348
263669.351	1386.813
263669.377	1389.744
263669.378	1391.941
263669.403	1392.674
263669.418	1391.941
263669.426	1392.674
263669.451	1391.941
263669.468	1390.476
263669.478	1388.278
263669.493	1387.546
263669.519	1385.348
263669.528	1383.883
263669.546	1383.150
263669.553	1383.150
263669.569	1382.418
263669.586	1383.150
263669.595	1382.418
263669.620	1383.883
263669.646	1385.348
263669.648	1386.813
263669.673	1389.011
263669.674	1389.744
263669.700	1389.744
263669.706	1389.744
263669.722	1391.209
263669.760	1391.941
263669.762	1391.209
263669.778	1390.476
263669.793	1389.744
263669.803	1388.278
263669.817	1386.813
263669.829	1386.081
263669.870	1385.348
263669.871	1384.615
263669.897	1386.081
263669.898	1389.744
263669.924	1397.070
263669.925	1408.059
263669.950	1418.315
263669.951	1428.571
263669.991	1435.165
263669.993	1437.363
263670.007	1435.165
263670.020	1430.769
263670.050	1424.176
263670.055	1417.582
263670.065	1410.256
263670.090	1404.396
263670.115	1400.733
263670.117	1397.070
263670.124	1397.070
263670.149	1396.337
263670.156	1396.337
263670.184	1397.802
263670.185	1397.802
263670.210	1399.267
263670.236	1398.535
263670.243	1397.802
263670.253	1397.070
263670.278	1395.604
263670.279	1392.674
263670.309	1389.744
263670.310	1386.813
263670.338	1386.081
263670.355	1384.615
263670.368	1383.150
263670.383	1381.685
263670.408	1383.150
263670.409	1384.615
263670.424	1387.546
263670.453	1389.011
263670.454	1390.476
263670.476	1390.476
263670.509	1390.476
263670.510	1389.744
263670.532	1389.011
263670.548	1386.813
263670.576	1386.081
263670.578	1385.348
263670.594	1385.348
263670.595	1385.348
263670.624	1388.278
263670.638	1387.546
263670.648	1389.744
263670.673	1389.744
263670.674	1389.744
263670.700	1392.674
263670.714	1397.070
263670.720	1402.930
263670.745	1410.256
263670.746	1416.117
263670.772	1421.245
263670.793	1424.176
263670.821	1423.443
263670.828	1421.245
263670.829	1419.048
263670.854	1414.652
263670.870	1410.989
263670.883	1406.593
263670.903	1403.663
263670.911	1399.267
263670.936	1395.604
263670.944	1390.476
263670.953	1386.813
263670.978	1384.615
263670.995	1383.883
263671.009	1382.418
263671.026	1380.220
263671.060	1379.487
263671.061	1379.487
263671.065	1378.022
263671.083	1378.022
263671.108	1379.487
263671.114	1381.685
263671.165	1382.418
263671.166	1383.150
263671.191	1382.418
263671.193	1383.150
263671.204	1383.150
263671.206	1384.615
263671.223	1385.348
263671.241	1386.081
263671.251	1386.813
263671.279	1387.546
263671.280	1387.546
263671.310	1389.011
263671.319	1388.278
263671.333	1389.744
263671.360	1389.744
263671.370	1388.278
263671.380	1388.278
263671.411	1388.278
263671.413	1387.546
263671.423	1387.546
263671.446	1387.546
263671.465	1387.546
263671.476	1386.813
263671.490	1387.546
263671.519	1387.546
263671.538	1388.278
263671.540	1390.476
263671.551	1395.604
263671.580	1400.733
263671.581	1405.861
263671.601	1413.187
263671.619	1419.048
263671.653	1421.245
263671.654	1420.513
263671.669	1416.117
263671.675	1410.989
263671.695	1405.861
263671.710	1402.198
263671.717	1400.000
263671.758	1396.337
263671.759	1393.407
263671.784	1390.476
263671.785	1387.546
263671.810	1386.081
263671.825	1384.615
263671.830	1386.813
263671.850	1388.278
263671.881	1391.209
263671.883	1392.674
263671.889	1394.872
263671.915	1394.872
263671.921	1394.139
263671.946	1391.941
263671.951	1390.476
263671.980	1388.278
263672.005	1387.546
263672.006	1386.081
263672.020	1386.081
263672.055	1385.348
263672.064	1387.546
263672.073	1388.278
263672.084	1389.011
263672.110	1389.011
263672.124	1389.744
263672.135	1389.744
263672.152	1391.209
263672.165	1391.209
263672.178	1389.744
263672.201	1390.476
263672.208	1390.476
263672.241	1390.476
263672.243	1390.476
263672.255	1390.476
263672.279	1389.744
263672.280	1389.011
263672.309	1391.209
263672.310	1393.407
263672.328	1397.070
263672.368	1402.930
263672.374	1409.524
263672.382	1415.385
263672.394	1420.513
263672.428	1423.443
263672.429	1424.908
263672.455	1423.443
263672.481	1419.780
263672.483	1415.385
263672.493	1410.989
263672.508	1404.396
263672.528	1400.733
263672.545	1395.604
263672.550	1392.674
263672.575	1389.011
263672.605	1387.546
263672.606	1388.278
263672.621	1390.476
263672.641	1391.209
263672.643	1391.941
263672.673	1392.674
263672.674	1394.139
263672.706	1395.604
263672.708	1394.139
263672.728	1394.139
263672.739	1394.139
263672.764	1392.674
263672.774	1391.941
263672.796	1390.476
263672.830	1389.744
263672.831	1388.278
263672.840	1387.546
263672.854	1386.813
263672.863	1386.813
263672.883	1388.278
263672.891	1389.744
263672.917	1390.476
263672.918	1390.476
263672.948	1389.744
263672.965	1390.476
263672.975	1391.941
263672.988	1391.941
263673.007	1392.674
263673.020	1392.674
263673.065	1391.209
263673.067	1392.674
263673.092	1394.872
263673.093	1399.267
263673.121	1403.663
263673.123	1410.989
263673.139	1416.850
263673.143	1421.978
263673.175	1424.176
263673.176	1423.443
263673.198	1420.513
263673.211	1414.652
263673.220	1409.524
263673.244	1403.663
263673.251	1397.802
263673.290	1393.407
263673.291	1390.476
263673.305	1388.278
263673.325	1386.081
263673.333	1385.348
263673.356	1387.546
263673.372	1389.011
263673.381	1390.476
263673.391	1392.674
263673.425	1393.407
263673.426	1393.407
263673.441	1393.407
263673.470	1392.674
263673.484	1391.941
263673.499	1389.744
263673.506	1389.011
263673.544	1386.813
263673.548	1384.615
263673.549	1383.883
263673.575	1383.883
263673.591	1383.883
263673.605	1384.615
263673.614	1384.615
263673.648	1383.883
263673.649	1384.615
263673.663	1385.348
263673.681	1384.615
263673.710	1386.081
263673.711	1387.546
263673.733	1389.011
263673.738	1389.011
263673.763	1388.278
263673.779	1389.744
263673.780	1390.476
263673.806	1392.674
263673.824	1398.535
263673.825	1408.059
263673.850	1418.315
263673.862	1428.571
263673.888	1435.897
263673.906	1441.026
263673.915	1443.223
263673.924	1441.758
263673.955	1435.897
263673.956	1428.571
263673.982	1419.048
263673.983	1410.256
263674.008	1401.465
263674.021	1394.139
263674.045	1388.278
263674.055	1386.081
263674.079	1383.883
263674.080	1386.081
263674.098	1389.744
263674.131	1393.407
263674.133	1394.139
263674.148	1395.604
263674.165	1395.604
263674.179	1394.872
263674.203	1394.139
263674.213	1389.744
263674.219	1385.348
263674.244	1380.952
263674.252	1375.092
263674.278	1370.696
263674.279	1367.033
263674.304	1364.835
263674.314	1363.370
263674.328	1362.637
263674.356	1363.370
263674.390	1365.568
263674.391	1368.498
263674.409	1372.161
263674.410	1377.289
263674.426	1380.952
263674.450	1384.615
263674.483	1388.278
263674.484	1392.674
263674.495	1397.802
263674.505	1406.593
263674.529	1416.117
263674.548	1425.641
263674.549	1434.432
263674.562	1441.026
263674.590	1444.689
263674.609	1446.886
263674.617	1447.619
263674.630	1446.154
263674.651	1443.956
263674.653	1440.293
263674.678	1435.165
263674.687	1431.502
263674.720	1427.839
263674.721	1423.443
263674.744	1419.780
263674.753	1416.850
263674.770	1415.385
263674.785	1413.187
263674.801	1411.722
263674.811	1410.989
263674.836	1408.791
263674.854	1406.593
263674.868	1404.396
263674.881	1400.733
263674.893	1397.802
263674.921	1394.872
263674.923	1391.941
263674.948	1389.744
263674.967	1389.011
263674.991	1389.011
263674.993	1389.744
263675.017	1391.941
263675.025	1393.407
263675.035	1394.139
263675.074	1395.604
263675.078	1397.070
263675.090	1397.802
263675.104	1397.802
263675.114	1397.070
263675.125	1398.535
263675.146	1400.733
263675.160	1402.930
263675.189	1407.326
263675.198	1413.187
263675.206	1420.513
263675.225	1425.641
263675.239	1429.304
263675.264	1428.571
263675.270	1425.641
263675.301	1421.245
263675.303	1417.582
263675.320	1412.454
263675.328	1407.326
263675.353	1400.733
263675.371	1395.604
263675.385	1391.941
263675.395	1388.278
263675.428	1386.813
263675.429	1386.081
263675.441	1386.813
263675.456	1386.813
263675.481	1386.813
263675.486	1387.546
263675.511	1387.546
263675.518	1388.278
263675.554	1387.546
263675.555	1387.546
263675.573	1386.813
263675.585	1386.081
263675.609	1386.813
263675.610	1387.546
263675.639	1387.546
263675.664	1388.278
263675.665	1387.546
263675.688	1387.546
263675.698	1387.546
263675.711	1387.546
263675.720	1385.348
263675.744	1385.348
263675.756	1383.883
263675.781	1383.150
263675.783	1383.150
263675.805	1384.615
263675.811	1386.081
263675.830	1389.744
263675.854	1395.604
263675.860	1401.465
263675.901	1405.861
263675.903	1408.059
263675.911	1408.791
263675.925	1407.326
263675.943	1403.663
263675.967	1400.000
263675.978	1394.872
263676.003	1392.674
263676.004	1391.209
263676.028	1389.011
263676.044	1386.813
263676.053	1385.348
263676.063	1384.615
263676.085	1383.150
263676.105	1382.418
263676.134	1381.685
263676.141	1382.418
263676.156	1383.883
263676.163	1386.081
263676.180	1386.813
263676.185	1386.081
263676.210	1386.813
263676.221	1385.348
263676.246	1384.615
263676.271	1383.150
263676.273	1382.418
263676.298	1383.150
263676.310	1382.418
263676.311	1382.418
263676.330	1382.418
263676.361	1381.685
263676.363	1380.952
263676.385	1379.487
263676.395	1378.755
263676.423	1378.755
263676.424	1378.755
263676.449	1379.487
263676.458	1380.220
263676.494	1379.487
263676.495	1381.685
263676.508	1385.348
263676.521	1389.011
263676.531	1394.139
263676.556	1399.267
263676.576	1402.930
263676.581	1405.128
263676.609	1406.593
263676.610	1405.128
263676.635	1403.663
263676.645	1401.465
263676.665	1397.802
263676.679	1394.872
263676.699	1391.209
263676.725	1387.546
263676.726	1385.348
263676.739	1383.150
263676.765	1381.685
263676.767	1382.418
263676.790	1384.615
263676.801	1386.081
263676.835	1387.546
263676.836	1387.546
263676.852	1388.278
263676.876	1386.813
263676.878	1386.081
263676.910	1385.348
263676.911	1383.883
263676.936	1383.883
263676.967	1384.615
263676.968	1383.883
263676.978	1383.150
263677.001	1384.615
263677.003	1386.081
263677.031	1386.813
263677.043	1386.081
263677.054	1386.081
263677.079	1386.813
263677.080	1387.546
263677.094	1388.278
263677.124	1388.278
263677.136	1388.278
263677.154	1389.744
263677.160	1390.476
263677.192	1393.407
263677.193	1397.070
263677.207	1402.198
263677.219	1408.791
263677.244	1413.187
263677.251	1416.117
263677.276	1416.117
263677.278	1413.187
263677.315	1408.791
263677.317	1402.198
263677.328	1395.604
263677.352	1389.011
263677.375	1384.615
263677.376	1380.952
263677.401	1380.220
263677.410	1378.755
263677.435	1378.755
263677.443	1380.220
263677.461	1384.615
263677.478	1385.348
263677.495	1387.546
263677.509	1388.278
263677.543	1389.744
263677.569	1389.744
263677.570	1390.476
263677.600	1389.011
263677.601	1389.011
263677.609	1387.546
263677.634	1387.546
263677.639	1386.081
263677.645	1385.348
263677.670	1385.348
263677.684	1385.348
