Timestamp	PPG	2023-07-21 14:07:16.912	fs=64.0
261153.157	1378.022
261153.178	1378.022
261153.192	1379.487
261153.224	1381.685
261153.252	1384.615
261153.254	1388.278
261153.264	1391.209
261153.270	1393.407
261153.295	1395.604
261153.299	1396.337
261153.313	1397.070
261153.337	1396.337
261153.369	1393.407
261153.370	1391.941
261153.389	1389.744
261153.395	1389.011
261153.415	1387.546
261153.446	1386.813
261153.448	1386.081
261153.473	1386.813
261153.474	1388.278
261153.494	1392.674
261153.504	1400.000
261153.522	1409.524
261153.536	1418.315
261153.561	1425.641
261153.569	1426.374
261153.604	1424.176
261153.605	1417.582
261153.627	1409.524
261153.629	1399.267
261153.646	1391.209
261153.661	1384.615
261153.680	1380.220
261153.723	1378.022
261153.729	1378.755
261153.731	1379.487
261153.741	1383.150
261153.751	1387.546
261153.776	1389.744
261153.784	1392.674
261153.811	1396.337
261153.812	1397.802
261153.837	1398.535
261153.860	1396.337
261153.869	1396.337
261153.894	1394.872
261153.899	1394.139
261153.920	1393.407
261153.921	1391.941
261153.950	1390.476
261153.963	1390.476
261153.976	1389.744
261153.986	1392.674
261154.010	1397.070
261154.017	1404.396
261154.041	1411.722
261154.076	1416.850
261154.078	1419.780
261154.102	1418.315
261154.104	1412.454
261154.124	1405.128
261154.145	1396.337
261154.146	1388.278
261154.178	1382.418
261154.179	1378.755
261154.204	1377.289
261154.211	1378.755
261154.225	1382.418
261154.244	1386.813
261154.254	1389.744
261154.270	1394.139
261154.303	1396.337
261154.304	1399.267
261154.318	1400.000
261154.334	1400.000
261154.360	1397.802
261154.370	1397.070
261154.395	1394.139
261154.396	1391.209
261154.426	1389.011
261154.427	1387.546
261154.445	1386.081
261154.461	1386.081
261154.474	1386.081
261154.499	1388.278
261154.504	1393.407
261154.535	1402.198
261154.536	1409.524
261154.555	1417.582
261154.569	1422.711
261154.595	1423.443
261154.596	1419.780
261154.621	1412.454
261154.623	1403.663
261154.651	1394.872
261154.671	1386.813
261154.685	1380.952
261154.719	1378.022
261154.720	1376.557
261154.740	1377.289
261154.741	1380.952
261154.753	1383.883
261154.782	1387.546
261154.784	1389.744
261154.803	1392.674
261154.810	1394.872
261154.839	1396.337
261154.852	1395.604
261154.866	1394.872
261154.895	1393.407
261154.896	1392.674
261154.918	1391.941
261154.922	1391.209
261154.954	1388.278
261154.967	1387.546
261154.977	1386.081
261155.003	1388.278
261155.004	1392.674
261155.034	1399.267
261155.041	1407.326
261155.065	1415.385
261155.066	1421.978
261155.094	1424.176
261155.095	1421.245
261155.120	1414.652
261155.146	1405.861
261155.161	1396.337
261155.171	1387.546
261155.179	1381.685
261155.192	1378.755
261155.210	1377.289
261155.226	1377.289
261155.259	1378.755
261155.261	1380.952
261155.271	1385.348
261155.302	1386.813
261155.304	1389.744
261155.314	1391.209
261155.335	1393.407
261155.361	1394.872
261155.362	1396.337
261155.387	1396.337
261155.409	1396.337
261155.410	1393.407
261155.426	1391.941
261155.450	1389.011
261155.465	1388.278
261155.491	1386.813
261155.492	1386.813
261155.506	1387.546
261155.517	1391.209
261155.539	1397.802
261155.552	1406.593
261155.570	1415.385
261155.597	1421.245
261155.599	1422.711
261155.631	1420.513
261155.643	1413.919
261155.649	1404.396
261155.665	1394.872
261155.684	1386.813
261155.689	1380.952
261155.716	1378.755
261155.735	1378.022
261155.736	1379.487
261155.761	1380.220
261155.772	1381.685
261155.786	1383.883
261155.810	1386.081
261155.811	1387.546
261155.840	1391.209
261155.841	1394.139
261155.866	1396.337
261155.876	1397.070
261155.904	1395.604
261155.920	1393.407
261155.921	1391.209
261155.953	1389.011
261155.954	1389.011
261155.975	1389.011
261156.001	1389.744
261156.016	1389.011
261156.022	1390.476
261156.076	1392.674
261156.077	1397.802
261156.092	1405.861
261156.094	1413.919
261156.104	1420.513
261156.126	1422.711
261156.127	1419.780
261156.153	1414.652
261156.155	1405.128
261156.184	1395.604
261156.185	1386.081
261156.215	1380.220
261156.235	1375.824
261156.236	1373.626
261156.260	1374.359
261156.274	1377.289
261156.316	1380.220
261156.318	1384.615
261156.326	1387.546
261156.335	1391.209
261156.346	1394.139
261156.370	1395.604
261156.375	1396.337
261156.400	1396.337
261156.406	1394.139
261156.440	1393.407
261156.442	1391.209
261156.466	1389.744
261156.475	1387.546
261156.494	1386.081
261156.507	1384.615
261156.518	1385.348
261156.549	1387.546
261156.550	1391.209
261156.573	1397.070
261156.591	1405.128
261156.597	1413.919
261156.622	1421.245
261156.650	1424.176
261156.651	1422.711
261156.676	1416.117
261156.677	1408.059
261156.700	1397.070
261156.712	1389.011
261156.732	1381.685
261156.742	1377.289
261156.774	1373.626
261156.775	1373.626
261156.792	1375.092
261156.803	1378.022
261156.813	1382.418
261156.835	1386.813
261156.845	1391.209
261156.864	1394.872
261156.878	1399.267
261156.906	1400.733
261156.916	1399.267
261156.922	1397.070
261156.948	1394.139
261156.965	1391.941
261156.979	1389.011
261157.010	1387.546
261157.011	1385.348
261157.036	1386.081
261157.037	1386.081
261157.063	1387.546
261157.070	1390.476
261157.086	1396.337
261157.101	1403.663
261157.114	1411.722
261157.139	1418.315
261157.154	1421.245
261157.170	1420.513
261157.179	1416.117
261157.190	1406.593
261157.214	1397.070
261157.231	1387.546
261157.258	1380.220
261157.259	1375.824
261157.284	1374.359
261157.285	1374.359
261157.309	1377.289
261157.310	1379.487
261157.339	1383.883
261157.374	1389.011
261157.375	1392.674
261157.389	1395.604
261157.396	1397.802
261157.415	1397.802
261157.424	1397.070
261157.443	1395.604
261157.468	1392.674
261157.497	1391.941
261157.499	1390.476
261157.508	1389.011
261157.521	1389.744
261157.540	1389.011
261157.575	1389.011
261157.575	1389.744
261157.606	1392.674
261157.607	1396.337
261157.624	1404.396
261157.635	1410.989
261157.647	1417.582
261157.656	1419.780
261157.681	1417.582
261157.701	1410.989
261157.730	1402.930
261157.745	1394.139
261157.746	1388.278
261157.756	1383.150
261157.781	1380.220
261157.791	1378.022
261157.809	1378.755
261157.810	1380.952
261157.854	1385.348
261157.855	1390.476
261157.863	1394.872
261157.887	1398.535
261157.896	1402.198
261157.921	1404.396
261157.922	1406.593
261157.966	1407.326
261157.981	1408.791
261157.982	1410.256
261158.015	1412.454
261158.016	1413.919
261158.018	1417.582
261158.045	1418.315
261158.061	1417.582
261158.090	1416.117
261158.091	1414.652
261158.097	1411.722
261158.124	1409.524
261158.125	1407.326
261158.150	1405.861
261158.166	1402.198
261158.175	1397.070
261158.200	1389.011
261158.211	1381.685
261158.229	1375.824
261158.243	1372.161
261158.265	1369.231
261158.270	1367.766
261158.294	1368.498
261158.324	1369.963
261158.333	1373.626
261158.334	1379.487
261158.360	1386.813
261158.361	1394.872
261158.386	1402.198
261158.407	1408.059
261158.439	1410.989
261158.440	1411.722
261158.448	1408.791
261158.466	1405.128
261158.476	1400.733
261158.487	1397.070
261158.513	1393.407
261158.514	1391.209
261158.555	1389.011
261158.556	1389.011
261158.582	1390.476
261158.608	1394.139
261158.609	1397.802
261158.621	1405.128
261158.641	1411.722
261158.642	1416.117
261158.669	1415.385
261158.691	1413.187
261158.697	1407.326
261158.712	1400.733
261158.733	1392.674
261158.745	1387.546
261158.771	1383.883
261158.772	1382.418
261158.799	1381.685
261158.800	1383.150
261158.815	1383.883
261158.840	1386.813
261158.841	1389.744
261158.871	1393.407
261158.872	1395.604
261158.897	1397.802
261158.919	1397.802
261158.920	1397.070
261158.946	1394.139
261158.970	1392.674
261158.976	1390.476
261158.986	1390.476
261159.015	1389.744
261159.016	1390.476
261159.041	1391.941
261159.057	1392.674
261159.071	1394.139
261159.088	1397.802
261159.098	1402.198
261159.123	1408.791
261159.149	1413.187
261159.155	1415.385
261159.170	1413.919
261159.196	1408.059
261159.197	1398.535
261159.220	1390.476
261159.231	1383.150
261159.264	1379.487
261159.265	1378.755
261159.277	1378.755
261159.284	1380.220
261159.305	1382.418
261159.319	1384.615
261159.343	1386.813
261159.344	1386.813
261159.373	1386.813
261159.374	1383.883
261159.399	1381.685
261159.408	1381.685
261159.423	1381.685
261159.448	1384.615
261159.472	1387.546
261159.477	1390.476
261159.503	1392.674
261159.504	1394.139
261159.524	1394.139
261159.541	1393.407
261159.565	1394.872
261159.566	1397.802
261159.590	1405.861
261159.620	1418.315
261159.621	1430.037
261159.636	1435.165
261159.646	1432.967
261159.671	1424.176
261159.680	1410.256
261159.705	1396.337
261159.706	1383.883
261159.736	1372.894
261159.750	1364.103
261159.760	1360.440
261159.771	1360.440
261159.796	1364.835
261159.797	1372.894
261159.838	1380.952
261159.839	1389.744
261159.871	1397.070
261159.872	1404.396
261159.890	1407.326
261159.899	1407.326
261159.917	1405.128
261159.919	1400.733
261159.942	1397.070
261159.973	1394.139
261159.988	1391.209
261159.995	1390.476
261160.010	1389.011
261160.016	1389.744
261160.040	1391.209
261160.061	1394.872
261160.070	1400.733
261160.095	1408.059
261160.096	1414.652
261160.116	1419.048
261160.129	1419.780
261160.153	1419.048
261160.161	1413.919
261160.188	1408.059
261160.220	1398.535
261160.221	1389.744
261160.234	1383.150
261160.243	1380.220
261160.254	1378.022
261160.272	1378.755
261160.286	1380.952
261160.321	1385.348
261160.322	1388.278
261160.341	1392.674
261160.363	1396.337
261160.364	1398.535
261160.385	1399.267
261160.396	1399.267
261160.420	1397.802
261160.421	1394.872
261160.452	1392.674
261160.479	1392.674
261160.504	1391.941
261160.506	1390.476
261160.507	1389.744
261160.520	1391.941
261160.544	1394.139
261160.570	1400.000
261160.571	1408.059
261160.581	1415.385
261160.606	1420.513
261160.633	1419.780
261160.634	1416.850
261160.646	1409.524
261160.678	1400.733
261160.679	1392.674
261160.704	1385.348
261160.705	1381.685
261160.724	1379.487
261160.739	1379.487
261160.764	1380.952
261160.774	1383.883
261160.801	1387.546
261160.812	1391.209
261160.821	1393.407
261160.835	1396.337
261160.849	1397.802
261160.865	1398.535
261160.895	1397.802
261160.896	1396.337
261160.929	1393.407
261160.930	1390.476
261160.949	1388.278
261160.964	1387.546
261160.975	1387.546
261160.995	1389.011
261161.009	1392.674
261161.034	1398.535
261161.045	1407.326
261161.057	1416.117
261161.071	1421.978
261161.098	1424.176
261161.123	1420.513
261161.150	1414.652
261161.176	1405.861
261161.177	1397.070
261161.179	1389.011
261161.180	1383.883
261161.204	1380.220
261161.209	1378.755
261161.221	1379.487
261161.246	1380.952
261161.278	1384.615
261161.279	1387.546
261161.288	1391.941
261161.311	1394.139
261161.312	1395.604
261161.337	1395.604
261161.368	1395.604
261161.369	1396.337
261161.401	1395.604
261161.403	1394.139
261161.415	1392.674
261161.439	1391.209
261161.440	1389.011
261161.466	1389.011
261161.477	1389.011
261161.502	1393.407
261161.504	1400.733
261161.525	1408.791
261161.536	1416.850
261161.559	1422.711
261161.569	1423.443
261161.593	1420.513
261161.603	1413.919
261161.634	1405.128
261161.643	1396.337
261161.645	1389.744
261161.672	1383.883
261161.676	1381.685
261161.702	1379.487
261161.714	1379.487
261161.746	1380.952
261161.747	1383.150
261161.774	1386.081
261161.799	1389.744
261161.805	1391.941
261161.806	1395.604
261161.817	1397.070
261161.836	1397.802
261161.865	1397.070
261161.866	1396.337
261161.878	1394.872
261161.897	1394.872
261161.907	1392.674
261161.922	1391.209
261161.950	1389.744
261161.976	1390.476
261161.978	1391.941
261161.996	1395.604
261162.010	1402.930
261162.019	1411.722
261162.045	1419.780
261162.053	1424.908
261162.076	1425.641
261162.111	1421.978
261162.113	1415.385
261162.114	1407.326
261162.135	1400.000
261162.148	1393.407
261162.156	1388.278
261162.183	1385.348
261162.219	1383.150
261162.220	1383.150
261162.226	1383.150
261162.244	1385.348
261162.259	1387.546
261162.270	1390.476
261162.295	1392.674
261162.303	1394.872
261162.313	1397.070
261162.343	1398.535
261162.360	1398.535
261162.361	1396.337
261162.391	1393.407
261162.392	1391.941
261162.415	1389.744
261162.434	1389.744
261162.460	1389.011
261162.461	1390.476
261162.472	1395.604
261162.498	1402.930
261162.514	1410.989
261162.528	1420.513
261162.540	1425.641
261162.575	1425.641
261162.576	1421.245
261162.596	1413.187
261162.597	1402.198
261162.614	1394.872
261162.625	1387.546
261162.650	1383.150
261162.669	1380.220
261162.700	1380.220
261162.702	1380.952
261162.708	1383.883
261162.731	1386.081
261162.741	1388.278
261162.751	1390.476
261162.773	1394.139
261162.786	1397.070
261162.815	1399.267
261162.816	1399.267
261162.843	1399.267
261162.844	1397.070
261162.869	1394.872
261162.885	1393.407
261162.903	1391.941
261162.928	1389.744
261162.943	1389.011
261162.944	1388.278
261162.964	1390.476
261162.978	1394.872
261162.999	1403.663
261163.006	1413.187
261163.032	1421.978
261163.034	1427.106
261163.060	1428.571
261163.085	1423.443
261163.086	1415.385
261163.100	1406.593
261163.124	1396.337
261163.125	1388.278
261163.168	1382.418
261163.169	1378.755
261163.176	1378.022
261163.196	1378.755
261163.214	1381.685
261163.224	1383.883
261163.239	1388.278
261163.267	1391.209
261163.296	1394.139
261163.305	1397.070
261163.315	1398.535
261163.316	1398.535
261163.338	1398.535
261163.345	1397.070
261163.370	1394.872
261163.371	1392.674
261163.400	1391.941
261163.419	1389.744
261163.435	1389.011
261163.449	1389.011
261163.456	1390.476
261163.480	1392.674
261163.486	1399.267
261163.518	1406.593
261163.519	1416.117
261163.537	1423.443
261163.551	1427.839
261163.571	1426.374
261163.580	1420.513
261163.604	1410.989
261163.610	1401.465
261163.648	1391.941
261163.649	1384.615
261163.675	1379.487
261163.695	1376.557
261163.704	1375.092
261163.713	1377.289
261163.729	1380.220
261163.760	1383.883
261163.761	1389.011
261163.769	1393.407
261163.794	1397.070
261163.805	1400.000
261163.814	1400.000
261163.836	1399.267
261163.861	1396.337
261163.862	1394.139
261163.884	1393.407
261163.897	1391.941
261163.921	1390.476
261163.943	1388.278
261163.944	1386.813
261163.969	1387.546
261163.970	1389.744
261164.000	1394.139
261164.001	1401.465
261164.022	1410.256
261164.041	1419.048
261164.056	1424.908
261164.071	1426.374
261164.109	1424.176
261164.110	1416.117
261164.118	1405.861
261164.139	1396.337
261164.146	1386.813
261164.165	1380.220
261164.181	1376.557
261164.191	1375.824
261164.216	1378.022
261164.218	1380.952
261164.240	1384.615
261164.253	1387.546
261164.278	1391.209
261164.286	1394.872
261164.317	1397.070
261164.349	1397.802
261164.350	1397.802
261164.370	1397.802
261164.371	1396.337
261164.386	1394.872
261164.396	1393.407
261164.416	1391.209
261164.438	1389.011
261164.473	1388.278
261164.474	1387.546
261164.481	1387.546
261164.496	1387.546
261164.510	1390.476
261164.516	1395.604
261164.540	1402.930
261164.574	1411.722
261164.575	1419.048
261164.599	1423.443
261164.601	1423.443
261164.620	1417.582
261164.621	1409.524
261164.651	1399.267
261164.676	1390.476
261164.676	1383.883
261164.705	1380.220
261164.706	1375.824
261164.718	1375.824
261164.743	1378.022
261164.764	1381.685
261164.778	1385.348
261164.803	1389.744
261164.804	1394.139
261164.829	1397.070
261164.835	1398.535
261164.844	1398.535
261164.869	1397.070
261164.886	1396.337
261164.900	1394.872
261164.915	1391.941
261164.942	1390.476
261164.968	1389.011
261164.992	1387.546
261164.993	1387.546
261164.995	1387.546
261165.009	1388.278
261165.018	1389.744
261165.042	1394.139
261165.065	1400.000
261165.066	1408.791
261165.090	1416.850
261165.104	1421.245
261165.117	1419.780
261165.128	1416.117
261165.183	1408.791
261165.184	1400.000
261165.184	1391.209
261165.200	1383.883
261165.209	1378.022
261165.248	1374.359
261165.261	1375.824
261165.290	1378.755
261165.291	1383.150
261165.307	1386.813
261165.317	1391.941
261165.330	1395.604
261165.359	1397.802
261165.374	1397.802
261165.384	1397.802
261165.414	1396.337
261165.415	1396.337
261165.443	1394.139
261165.444	1391.941
261165.470	1391.209
261165.484	1390.476
261165.490	1389.011
261165.515	1388.278
261165.540	1389.011
261165.541	1391.209
261165.551	1396.337
261165.575	1403.663
261165.605	1411.722
261165.606	1416.850
261165.616	1419.048
261165.650	1416.850
261165.665	1410.256
261165.666	1401.465
261165.681	1391.941
261165.691	1384.615
261165.721	1380.220
261165.722	1376.557
261165.774	1375.824
261165.775	1377.289
261165.790	1380.220
261165.791	1384.615
261165.813	1387.546
261165.823	1390.476
261165.833	1392.674
261165.850	1394.139
261165.886	1394.872
261165.887	1395.604
261165.900	1394.872
261165.914	1394.872
261165.923	1392.674
261165.940	1389.744
261165.959	1387.546
261165.969	1386.813
261165.999	1386.813
261166.000	1388.278
261166.021	1389.744
261166.035	1394.139
261166.059	1400.733
261166.080	1410.256
261166.086	1417.582
261166.111	1422.711
261166.112	1421.245
261166.138	1416.850
261166.154	1409.524
261166.161	1400.000
261166.184	1390.476
261166.194	1382.418
261166.239	1376.557
261166.240	1374.359
261166.266	1373.626
261166.283	1377.289
261166.285	1379.487
261166.286	1383.883
261166.308	1388.278
261166.317	1392.674
261166.329	1395.604
261166.363	1397.802
261166.370	1398.535
261166.384	1398.535
261166.398	1397.070
261166.415	1394.872
261166.429	1391.209
261166.443	1389.744
261166.471	1389.744
261166.489	1389.011
261166.490	1389.011
261166.521	1389.011
261166.522	1391.941
261166.535	1397.070
261166.564	1404.396
261166.565	1411.722
261166.590	1418.315
261166.591	1421.978
261166.617	1420.513
261166.626	1416.117
261166.655	1408.059
261166.663	1400.000
261166.683	1391.941
261166.716	1386.081
261166.720	1380.220
261166.721	1377.289
261166.745	1376.557
261166.760	1378.755
261166.781	1382.418
261166.789	1386.081
261166.803	1389.744
261166.831	1393.407
261166.833	1397.070
261166.850	1399.267
261166.880	1400.000
261166.881	1398.535
261166.896	1397.070
261166.915	1394.139
261166.946	1391.941
261166.947	1389.744
261166.959	1389.744
261166.981	1389.011
261166.994	1388.278
261167.013	1390.476
261167.023	1393.407
261167.041	1399.267
261167.071	1406.593
261167.072	1415.385
261167.085	1421.245
261167.095	1423.443
261167.114	1420.513
261167.139	1414.652
261167.151	1406.593
261167.180	1397.070
261167.181	1389.011
261167.195	1383.150
261167.214	1378.755
261167.228	1377.289
261167.260	1378.022
261167.271	1380.952
261167.304	1383.883
261167.305	1387.546
261167.313	1391.941
261167.319	1394.872
261167.334	1396.337
261167.349	1397.802
261167.371	1397.802
261167.385	1397.070
261167.420	1395.604
261167.421	1395.604
261167.431	1394.139
261167.446	1392.674
261167.464	1391.209
261167.478	1391.209
261167.490	1391.209
261167.529	1392.674
261167.530	1397.802
261167.555	1405.128
261167.556	1412.454
261167.571	1419.048
261167.585	1421.978
261167.599	1419.780
261167.622	1414.652
261167.628	1406.593
261167.661	1397.070
261167.679	1389.744
261167.681	1383.150
261167.694	1380.220
261167.713	1378.755
261167.735	1378.022
261167.746	1379.487
261167.776	1383.883
261167.785	1388.278
261167.787	1392.674
261167.808	1394.139
261167.819	1397.070
261167.834	1398.535
261167.850	1399.267
261167.889	1399.267
261167.890	1398.535
261167.906	1396.337
261167.914	1395.604
261167.938	1394.139
261167.939	1392.674
261167.964	1390.476
261167.980	1389.011
261168.013	1389.744
261168.014	1393.407
261168.019	1398.535
261168.031	1406.593
261168.060	1413.187
261168.074	1419.048
261168.084	1420.513
261168.114	1418.315
261168.115	1413.187
261168.134	1406.593
261168.160	1396.337
261168.175	1389.744
261168.185	1382.418
261168.194	1379.487
261168.215	1377.289
261168.253	1377.289
261168.256	1379.487
261168.257	1384.615
261168.273	1389.011
261168.288	1393.407
261168.303	1396.337
261168.319	1399.267
261168.333	1400.000
261168.361	1399.267
261168.375	1396.337
261168.381	1395.604
261168.403	1394.139
261168.411	1393.407
261168.424	1391.941
261168.441	1391.209
261168.458	1389.744
261168.485	1390.476
261168.486	1392.674
261168.510	1396.337
261168.526	1402.198
261168.527	1409.524
261168.553	1415.385
261168.586	1420.513
261168.611	1421.978
261168.612	1419.048
261168.614	1408.791
261168.634	1400.000
261168.657	1390.476
261168.663	1383.883
261168.679	1378.755
261168.693	1376.557
261168.723	1376.557
261168.728	1378.022
261168.748	1381.685
261168.759	1386.081
261168.769	1389.011
261168.796	1392.674
261168.797	1395.604
261168.823	1397.802
261168.848	1397.802
261168.849	1397.070
261168.870	1396.337
261168.888	1395.604
261168.906	1394.872
261168.912	1394.139
261168.924	1392.674
261168.950	1391.941
261168.975	1390.476
261168.976	1392.674
261169.006	1395.604
261169.007	1401.465
261169.021	1408.059
261169.031	1413.919
261169.071	1417.582
261169.072	1418.315
261169.085	1412.454
261169.095	1405.128
261169.122	1395.604
261169.124	1387.546
261169.150	1380.952
261169.165	1377.289
261169.194	1375.092
261169.195	1375.824
261169.214	1378.022
261169.225	1380.952
261169.251	1383.883
261169.263	1388.278
261169.279	1392.674
261169.310	1396.337
261169.311	1398.535
261169.320	1398.535
261169.334	1397.070
261169.353	1394.872
261169.366	1392.674
261169.388	1391.209
261169.400	1389.011
261169.434	1389.011
261169.435	1386.813
261169.460	1388.278
261169.461	1389.744
261169.479	1394.872
261169.490	1400.733
261169.515	1408.791
261169.520	1415.385
261169.549	1417.582
261169.550	1415.385
261169.579	1410.989
261169.580	1403.663
261169.610	1396.337
261169.611	1387.546
261169.636	1381.685
261169.666	1378.755
261169.667	1377.289
261169.681	1376.557
261169.693	1380.220
261169.726	1381.685
261169.734	1386.081
261169.743	1390.476
261169.758	1394.872
261169.783	1398.535
261169.793	1400.000
261169.799	1400.000
261169.824	1400.733
261169.833	1398.535
261169.858	1397.070
261169.870	1393.407
261169.905	1391.209
261169.906	1389.011
261169.911	1388.278
261169.936	1388.278
261169.937	1391.209
261169.963	1394.872
261169.970	1402.930
261169.994	1409.524
261170.021	1416.117
261170.022	1416.850
261170.031	1415.385
261170.056	1409.524
261170.083	1402.198
261170.084	1394.139
261170.111	1387.546
261170.136	1381.685
261170.145	1379.487
261170.154	1378.022
261170.164	1379.487
261170.180	1380.220
261170.195	1383.150
261170.219	1387.546
261170.220	1391.941
261170.253	1394.872
261170.260	1397.802
261170.279	1398.535
261170.287	1399.267
261170.310	1399.267
261170.319	1397.070
261170.330	1395.604
261170.375	1393.407
261170.376	1391.941
261170.384	1391.209
261170.401	1389.744
261170.411	1391.941
261170.435	1394.872
261170.436	1400.733
261170.465	1408.059
261170.491	1413.919
261170.492	1418.315
261170.515	1419.780
261170.527	1415.385
261170.532	1408.059
261170.556	1398.535
261170.571	1391.209
261170.585	1384.615
261170.615	1380.220
261170.616	1378.022
261170.624	1379.487
261170.650	1380.952
261170.660	1383.883
261170.683	1387.546
261170.693	1392.674
261170.724	1395.604
261170.725	1397.802
261170.751	1397.802
261170.775	1397.802
261170.794	1396.337
261170.803	1396.337
261170.809	1395.604
261170.818	1394.872
261170.850	1394.139
261170.851	1392.674
261170.860	1391.941
261170.885	1393.407
261170.893	1398.535
261170.916	1407.326
261170.923	1413.919
261170.951	1419.780
261170.978	1421.245
261170.979	1420.513
261170.994	1414.652
261171.018	1406.593
261171.019	1398.535
261171.031	1389.744
261171.059	1383.883
261171.084	1380.952
261171.085	1378.755
261171.097	1380.220
261171.121	1383.150
261171.123	1386.081
261171.151	1389.011
261171.168	1391.941
261171.194	1394.139
261171.205	1396.337
261171.215	1396.337
261171.230	1397.070
261171.249	1396.337
261171.264	1395.604
261171.268	1394.872
261171.293	1392.674
261171.320	1390.476
261171.326	1389.011
261171.327	1389.011
261171.358	1393.407
261171.359	1398.535
261171.381	1408.059
261171.404	1415.385
261171.433	1420.513
261171.434	1421.245
261171.449	1417.582
261171.459	1409.524
261171.481	1400.733
261171.491	1392.674
261171.515	1385.348
261171.525	1380.952
261171.556	1378.022
261171.557	1375.824
261171.585	1378.022
261171.586	1379.487
261171.595	1383.883
261171.620	1386.813
261171.635	1391.209
261171.673	1394.139
261171.674	1396.337
261171.681	1397.070
261171.694	1397.802
261171.714	1396.337
261171.728	1395.604
261171.748	1394.139
261171.761	1392.674
261171.793	1390.476
261171.794	1389.011
261171.801	1389.744
261171.820	1394.872
261171.830	1402.930
261171.849	1413.187
261171.865	1420.513
261171.883	1424.176
261171.916	1421.978
261171.917	1416.117
261171.925	1408.059
261171.939	1398.535
261171.962	1390.476
261172.004	1383.883
261172.029	1380.220
261172.030	1378.022
261172.048	1377.289
261172.049	1378.755
261172.054	1380.220
261172.080	1383.883
261172.081	1386.081
261172.108	1389.011
261172.114	1392.674
261172.141	1394.139
261172.156	1395.604
261172.164	1397.070
261172.178	1397.070
261172.201	1395.604
261172.202	1392.674
261172.231	1389.744
261172.265	1386.813
261172.266	1386.813
261172.283	1389.744
261172.293	1394.872
261172.321	1404.396
261172.330	1416.850
261172.338	1424.176
261172.349	1429.304
261172.381	1427.839
261172.382	1421.245
261172.391	1411.722
261172.415	1400.733
261172.425	1390.476
261172.443	1384.615
261172.461	1378.755
261172.490	1377.289
261172.491	1378.022
261172.508	1379.487
261172.526	1380.220
261172.531	1383.150
261172.558	1386.081
261172.584	1389.011
261172.585	1391.941
261172.614	1393.407
261172.615	1394.139
261172.641	1396.337
261172.668	1396.337
261172.675	1394.872
261172.676	1393.407
261172.706	1391.941
261172.708	1389.744
261172.738	1389.011
261172.746	1389.011
261172.761	1391.941
261172.762	1397.802
261172.791	1408.059
261172.808	1416.850
261172.821	1425.641
261172.836	1427.839
261172.861	1427.106
261172.875	1421.245
261172.881	1412.454
261172.893	1403.663
261172.918	1394.872
261172.919	1386.081
261172.940	1380.220
261172.974	1378.022
261172.975	1376.557
261172.989	1377.289
261173.023	1378.755
261173.024	1380.952
261173.034	1383.883
261173.059	1387.546
261173.094	1391.209
261173.095	1394.872
261173.104	1397.070
261173.114	1399.267
261173.146	1400.000
261173.154	1398.535
261173.165	1396.337
261173.181	1394.139
261173.215	1391.941
261173.216	1391.941
261173.226	1391.209
261173.239	1390.476
261173.264	1389.744
261173.289	1389.744
261173.290	1390.476
261173.315	1397.070
261173.316	1404.396
261173.337	1413.919
261173.353	1422.711
261173.369	1429.304
261173.383	1431.502
261173.408	1429.304
261173.414	1422.711
261173.446	1414.652
261173.448	1404.396
261173.459	1394.872
261173.485	1388.278
261173.486	1381.685
261173.514	1377.289
261173.523	1374.359
261173.537	1375.092
261173.562	1375.824
261173.572	1378.022
261173.586	1381.685
261173.596	1386.081
261173.615	1391.941
261173.639	1396.337
261173.654	1399.267
261173.686	1400.733
261173.687	1400.000
261173.699	1399.267
261173.714	1397.070
261173.723	1394.139
261173.745	1391.941
261173.754	1390.476
261173.788	1389.011
261173.789	1388.278
261173.809	1389.744
261173.823	1389.011
261173.831	1389.744
261173.855	1390.476
261173.871	1391.209
261173.887	1392.674
261173.914	1394.139
261173.915	1397.070
261173.945	1403.663
261173.946	1410.256
261173.968	1419.048
261173.979	1424.908
261173.989	1427.106
261174.023	1424.908
261174.024	1419.048
261174.049	1411.722
261174.050	1403.663
261174.066	1397.802
261174.084	1391.209
261174.113	1386.081
261174.114	1384.615
261174.144	1384.615
261174.170	1386.081
261174.171	1389.011
261174.181	1389.744
261174.194	1390.476
261174.216	1392.674
261174.224	1394.139
261174.246	1394.139
261174.271	1395.604
261174.273	1396.337
261174.293	1396.337
261174.306	1395.604
261174.316	1394.139
261174.329	1392.674
261174.349	1391.941
261174.395	1389.011
261174.396	1388.278
261174.400	1388.278
261174.415	1388.278
261174.434	1389.744
261174.436	1390.476
261174.464	1391.209
261174.474	1391.209
261174.504	1391.209
261174.505	1390.476
261174.526	1389.744
261174.535	1390.476
261174.563	1393.407
261174.579	1397.802
261174.580	1404.396
261174.611	1412.454
261174.612	1419.048
261174.636	1422.711
261174.654	1421.245
261174.664	1416.850
261174.688	1410.256
261174.689	1402.198
261174.721	1394.139
261174.722	1386.081
261174.749	1379.487
261174.758	1376.557
261174.776	1375.092
261174.790	1375.824
261174.808	1378.755
261174.821	1383.150
261174.835	1388.278
261174.864	1393.407
261174.865	1397.070
261174.898	1400.000
261174.911	1400.733
261174.912	1401.465
261174.935	1400.733
261174.943	1401.465
261174.976	1400.733
261174.977	1398.535
261174.991	1397.070
261175.001	1395.604
261175.029	1395.604
261175.030	1399.267
261175.055	1402.198
261175.091	1405.861
261175.093	1406.593
261175.109	1404.396
261175.119	1398.535
261175.136	1394.139
261175.154	1390.476
261175.165	1390.476
261175.213	1393.407
261175.214	1399.267
261175.239	1405.861
261175.240	1410.989
261175.251	1412.454
261175.260	1413.187
261175.284	1410.256
261175.285	1405.861
261175.306	1400.000
261175.336	1394.139
261175.337	1389.744
261175.353	1386.813
261175.371	1386.081
261175.385	1385.348
261175.393	1386.081
261175.418	1387.546
261175.419	1388.278
261175.455	1391.209
261175.460	1392.674
261175.474	1394.872
261175.495	1394.872
261175.523	1395.604
261175.530	1394.139
261175.536	1394.139
261175.569	1393.407
261175.570	1391.941
261175.581	1392.674
261175.606	1391.209
261175.623	1390.476
261175.634	1389.744
261175.651	1388.278
261175.663	1389.744
261175.690	1390.476
261175.698	1393.407
261175.714	1399.267
261175.731	1405.128
261175.745	1410.989
261175.758	1414.652
261175.809	1416.117
261175.810	1413.919
261175.818	1408.059
261175.843	1401.465
261175.844	1395.604
261175.860	1389.744
261175.871	1386.813
261175.888	1385.348
261175.889	1383.883
261175.921	1382.418
261175.922	1382.418
261175.939	1383.883
261175.959	1386.081
261175.984	1389.011
261175.991	1391.209
261176.005	1393.407
261176.031	1396.337
261176.054	1397.802
261176.056	1396.337
261176.070	1395.604
261176.084	1394.872
261176.094	1391.941
261176.128	1391.209
261176.164	1390.476
261176.166	1389.744
261176.169	1389.011
261176.184	1389.011
261176.199	1389.011
261176.214	1391.209
261176.225	1394.139
261176.239	1398.535
261176.270	1406.593
261176.286	1413.919
261176.287	1419.048
261176.299	1421.245
261176.319	1419.048
261176.329	1413.919
261176.356	1406.593
261176.371	1397.802
261176.400	1391.209
261176.401	1386.081
261176.411	1383.150
261176.428	1382.418
261176.441	1382.418
261176.476	1383.150
261176.478	1383.883
261176.503	1386.813
261176.529	1388.278
261176.544	1389.744
261176.544	1391.941
261176.554	1393.407
261176.569	1394.139
261176.586	1395.604
261176.600	1396.337
261176.634	1394.872
261176.635	1392.674
261176.653	1391.209
261176.664	1390.476
261176.680	1391.209
261176.695	1389.011
261176.704	1388.278
261176.735	1387.546
261176.736	1387.546
261176.761	1389.011
261176.762	1394.139
261176.794	1401.465
261176.795	1409.524
261176.825	1416.850
261176.826	1419.048
261176.859	1418.315
261176.860	1413.187
261176.879	1406.593
261176.893	1397.802
261176.911	1391.209
261176.925	1385.348
261176.939	1382.418
261176.964	1380.220
261176.990	1380.220
261176.991	1380.952
261177.004	1383.150
261177.028	1384.615
261177.029	1388.278
261177.058	1391.209
261177.081	1395.604
261177.118	1397.070
261177.119	1397.802
261177.144	1397.802
261177.145	1396.337
261177.160	1394.872
261177.161	1394.872
261177.179	1391.941
261177.199	1390.476
261177.226	1388.278
261177.227	1386.813
261177.234	1386.813
261177.264	1386.081
261177.265	1386.813
261177.290	1388.278
261177.300	1391.941
261177.343	1397.802
261177.344	1405.128
261177.348	1413.919
261177.373	1418.315
261177.381	1419.780
261177.396	1415.385
261177.415	1408.059
261177.434	1400.733
261177.466	1394.139
261177.468	1386.081
261177.475	1381.685
261177.490	1379.487
261177.513	1378.755
261177.519	1379.487
261177.543	1382.418
261177.568	1385.348
261177.569	1389.011
261177.586	1391.941
261177.610	1394.139
261177.611	1394.872
261177.640	1395.604
261177.656	1395.604
261177.663	1393.407
261177.691	1392.674
261177.692	1390.476
261177.708	1389.011
261177.725	1388.278
261177.766	1387.546
261177.767	1386.813
261177.775	1386.081
261177.790	1386.813
261177.815	1390.476
261177.816	1394.872
261177.829	1399.267
261177.853	1406.593
261177.870	1413.187
261177.884	1417.582
261177.901	1416.117
261177.930	1411.722
261177.931	1404.396
261177.944	1399.267
261177.963	1394.872
261177.978	1391.209
261177.991	1388.278
261178.015	1385.348
261178.025	1383.883
261178.059	1382.418
261178.060	1381.685
261178.063	1383.150
261178.088	1383.883
261178.094	1386.081
261178.115	1387.546
261178.141	1390.476
261178.175	1391.941
261178.176	1392.674
261178.180	1393.407
261178.195	1395.604
261178.209	1395.604
261178.231	1394.872
261178.232	1391.941
261178.258	1391.941
261178.284	1390.476
261178.285	1389.011
261178.311	1389.011
261178.326	1389.744
261178.333	1391.209
261178.353	1395.604
261178.366	1400.733
261178.393	1408.059
261178.423	1415.385
261178.425	1419.780
261178.445	1421.245
261178.446	1418.315
261178.456	1412.454
261178.475	1402.198
261178.489	1392.674
261178.518	1384.615
261178.531	1379.487
261178.533	1375.824
261178.558	1375.824
261178.577	1375.092
261178.585	1376.557
261178.594	1379.487
261178.619	1383.150
261178.644	1388.278
261178.651	1390.476
261178.661	1394.139
261178.686	1396.337
261178.690	1398.535
261178.708	1399.267
261178.728	1400.000
261178.756	1397.802
261178.758	1396.337
261178.783	1394.139
261178.784	1391.209
261178.809	1389.011
261178.818	1386.813
261178.830	1386.081
261178.849	1386.081
261178.875	1388.278
261178.893	1391.941
261178.894	1398.535
261178.914	1406.593
261178.928	1413.187
261178.941	1417.582
261178.961	1417.582
261178.993	1412.454
261178.994	1404.396
261179.009	1397.070
261179.041	1391.209
261179.042	1386.081
261179.056	1382.418
261179.076	1380.952
261179.083	1380.220
261179.116	1380.952
261179.117	1381.685
261179.134	1383.883
261179.155	1386.081
261179.165	1388.278
261179.190	1390.476
261179.191	1391.209
261179.233	1390.476
261179.234	1391.209
261179.244	1391.209
261179.256	1391.209
261179.271	1390.476
261179.286	1391.209
261179.308	1390.476
261179.321	1390.476
261179.356	1391.209
261179.358	1391.209
261179.375	1391.209
261179.381	1393.407
261179.390	1397.802
261179.415	1403.663
261179.425	1409.524
261179.440	1413.919
261179.465	1414.652
261179.466	1411.722
261179.493	1406.593
261179.503	1400.733
261179.521	1394.139
261179.535	1389.011
261179.551	1385.348
261179.581	1383.883
261179.598	1383.150
261179.608	1383.150
261179.616	1384.615
261179.626	1386.081
261179.650	1387.546
261179.679	1389.011
261179.680	1390.476
261179.705	1392.674
261179.731	1393.407
261179.732	1394.872
261179.746	1394.872
261179.760	1395.604
261179.766	1394.872
261179.785	1394.872
261179.814	1394.139
261179.815	1394.139
261179.840	1393.407
261179.855	1391.941
261179.856	1391.941
261179.881	1393.407
261179.893	1394.139
261179.916	1399.267
261179.949	1405.128
261179.950	1412.454
261179.964	1418.315
261179.979	1420.513
261179.994	1418.315
261180.008	1413.187
261180.025	1406.593
261180.033	1397.802
261180.065	1391.209
261180.075	1386.813
261180.088	1383.150
261180.113	1381.685
261180.114	1380.952
261180.134	1382.418
261180.174	1383.883
261180.175	1388.278
261180.181	1391.209
261180.190	1394.139
261180.215	1395.604
261180.223	1396.337
261180.248	1396.337
261180.261	1396.337
261180.298	1394.872
261180.299	1393.407
261180.324	1391.941
261180.325	1391.941
261180.346	1390.476
261180.347	1389.011
261180.376	1391.209
261180.378	1393.407
261180.404	1397.802
261180.424	1405.861
261180.433	1413.187
261180.441	1419.780
261180.463	1421.245
261180.491	1419.048
261180.493	1412.454
261180.504	1404.396
261180.531	1395.604
261180.543	1389.011
261180.554	1383.883
261180.573	1380.952
261180.590	1380.220
261180.596	1380.220
261180.618	1382.418
261180.646	1384.615
261180.655	1387.546
261180.659	1391.209
261180.680	1394.139
261180.695	1396.337
261180.708	1397.070
261180.725	1399.267
261180.739	1399.267
261180.770	1397.802
261180.771	1395.604
261180.784	1393.407
261180.808	1391.941
261180.818	1389.744
261180.831	1389.011
261180.851	1389.744
261180.889	1391.941
261180.890	1394.139
261180.905	1400.000
261180.914	1408.791
261180.939	1416.850
261180.973	1421.978
261180.974	1422.711
261180.978	1418.315
261181.006	1410.989
261181.008	1402.198
261181.023	1395.604
261181.033	1388.278
261181.058	1382.418
261181.074	1379.487
261181.088	1378.755
261181.119	1380.220
261181.120	1382.418
261181.134	1386.081
261181.151	1389.011
261181.165	1391.941
261181.184	1393.407
261181.194	1395.604
261181.204	1396.337
261181.231	1396.337
261181.248	1396.337
261181.260	1396.337
261181.279	1395.604
261181.288	1394.872
261181.301	1394.139
261181.330	1392.674
261181.355	1390.476
261181.356	1390.476
261181.363	1391.941
261181.383	1397.802
261181.393	1405.128
261181.411	1413.187
261181.428	1418.315
261181.439	1422.711
261181.471	1421.978
261181.488	1416.850
261181.490	1409.524
261181.516	1400.733
261181.517	1391.941
261181.533	1386.081
261181.558	1380.952
261181.595	1380.220
261181.596	1380.220
261181.621	1382.418
261181.623	1384.615
261181.641	1387.546
261181.663	1389.744
261181.664	1393.407
261181.674	1396.337
261181.699	1397.802
261181.700	1398.535
261181.729	1397.802
261181.753	1395.604
261181.754	1394.139
261181.779	1392.674
261181.789	1391.941
261181.805	1390.476
261181.834	1389.744
261181.835	1389.011
261181.854	1389.744
261181.869	1394.139
261181.884	1400.733
261181.908	1409.524
261181.909	1418.315
261181.945	1424.176
261181.946	1426.374
261181.959	1422.711
261181.985	1415.385
261181.999	1405.861
261182.013	1396.337
261182.023	1387.546
261182.033	1380.952
261182.064	1376.557
261182.065	1376.557
261182.081	1378.022
261182.109	1380.952
261182.110	1383.883
261182.135	1388.278
261182.159	1391.209
261182.160	1393.407
261182.188	1396.337
261182.189	1397.802
261182.213	1397.802
261182.244	1395.604
261182.261	1395.604
261182.262	1394.872
261182.278	1392.674
261182.303	1390.476
261182.304	1389.744
261182.319	1389.744
261182.334	1389.011
261182.360	1392.674
261182.371	1397.070
261182.384	1403.663
261182.394	1411.722
261182.420	1419.048
261182.421	1422.711
261182.438	1422.711
261182.461	1417.582
261182.480	1410.989
261182.494	1402.198
261182.511	1394.139
261182.537	1386.813
261182.537	1381.685
261182.550	1379.487
261182.568	1378.022
261182.585	1378.022
261182.595	1380.220
261182.619	1382.418
261182.660	1385.348
261182.661	1388.278
261182.666	1391.941
261182.673	1394.872
261182.695	1397.070
261182.719	1399.267
261182.725	1398.535
261182.743	1396.337
261182.776	1395.604
261182.778	1393.407
261182.789	1393.407
261182.799	1391.941
261182.818	1391.209
261182.831	1390.476
261182.848	1393.407
261182.885	1397.070
261182.886	1404.396
261182.911	1411.722
261182.913	1419.048
261182.938	1423.443
261182.955	1424.176
261182.964	1419.780
261183.009	1411.722
261183.010	1402.930
261183.024	1394.872
261183.025	1386.813
261183.035	1383.883
261183.061	1380.220
261183.071	1379.487
261183.088	1380.220
261183.126	1383.150
261183.128	1385.348
261183.149	1388.278
261183.151	1390.476
261183.161	1394.139
261183.187	1396.337
261183.191	1397.070
261183.219	1397.802
261183.220	1397.802
261183.246	1397.802
261183.260	1397.070
261183.268	1397.070
261183.291	1396.337
261183.298	1394.872
261183.325	1393.407
261183.326	1391.941
261183.354	1394.872
261183.384	1400.733
261183.385	1408.791
261183.403	1417.582
261183.416	1424.908
261183.441	1429.304
261183.450	1429.304
261183.485	1423.443
261183.486	1413.919
261183.493	1402.198
261183.526	1392.674
261183.527	1386.081
261183.540	1380.952
261183.554	1378.755
261183.564	1378.755
261183.594	1379.487
261183.595	1382.418
261183.614	1385.348
261183.640	1389.744
261183.651	1392.674
261183.661	1396.337
261183.688	1397.802
261183.689	1398.535
261183.718	1398.535
261183.719	1397.802
261183.745	1395.604
261183.756	1394.872
261183.769	1392.674
261183.796	1392.674
261183.810	1391.941
261183.841	1391.209
261183.842	1391.209
261183.849	1393.407
261183.866	1398.535
261183.880	1407.326
261183.900	1415.385
261183.913	1421.978
261183.928	1424.908
261183.954	1421.978
261183.955	1415.385
261183.978	1408.791
261183.991	1400.000
261184.001	1392.674
261184.025	1386.813
261184.033	1383.883
261184.080	1383.150
261184.081	1383.883
261184.091	1385.348
261184.109	1388.278
261184.113	1390.476
261184.138	1393.407
261184.164	1394.872
261184.165	1394.872
261184.190	1395.604
261184.191	1394.139
261184.215	1393.407
261184.229	1393.407
261184.259	1391.941
261184.260	1391.209
261184.269	1391.209
261184.294	1391.209
261184.323	1391.209
261184.325	1390.476
261184.326	1389.744
261184.351	1389.011
261184.376	1390.476
261184.378	1394.872
261184.410	1403.663
261184.411	1414.652
261184.434	1422.711
261184.435	1426.374
261184.464	1426.374
261184.475	1421.978
261184.490	1413.187
261184.509	1403.663
261184.524	1394.139
261184.550	1387.546
261184.551	1382.418
261184.576	1379.487
261184.589	1378.022
261184.603	1379.487
261184.620	1380.220
261184.640	1383.150
261184.666	1384.615
261184.667	1389.744
261184.681	1394.139
261184.693	1397.070
261184.721	1397.070
261184.723	1397.802
261184.734	1397.802
261184.775	1397.802
261184.776	1395.604
261184.801	1393.407
261184.803	1390.476
261184.828	1389.011
261184.829	1389.011
261184.849	1388.278
261184.874	1389.011
261184.876	1390.476
261184.903	1394.139
261184.910	1402.198
261184.934	1410.989
261184.935	1419.780
261184.961	1425.641
261184.978	1427.106
261184.991	1422.711
261185.023	1416.117
261185.024	1406.593
261185.038	1397.070
261185.056	1388.278
261185.083	1383.150
261185.093	1381.685
261185.106	1380.952
261185.133	1380.952
261185.150	1382.418
261185.153	1383.883
261185.169	1386.081
261185.170	1389.011
261185.195	1392.674
261185.205	1394.872
261185.229	1397.070
261185.260	1397.802
261185.275	1397.070
261185.276	1396.337
261185.286	1394.872
261185.311	1393.407
261185.313	1391.941
261185.328	1389.744
261185.349	1389.011
261185.376	1388.278
261185.378	1387.546
261185.405	1387.546
261185.416	1389.011
261185.453	1391.941
261185.454	1396.337
261185.465	1402.930
261185.466	1412.454
261185.499	1419.780
261185.514	1424.908
261185.520	1423.443
261185.534	1418.315
261185.559	1409.524
261185.574	1400.000
261185.600	1390.476
261185.624	1383.150
261185.625	1378.755
261185.641	1378.022
261185.643	1379.487
261185.666	1383.150
261185.673	1387.546
261185.698	1391.941
261185.703	1394.872
261185.731	1397.802
261185.745	1399.267
261185.759	1400.000
261185.774	1400.733
261185.789	1402.930
261185.805	1404.396
261185.833	1404.396
261185.834	1402.930
261185.855	1401.465
261185.881	1397.070
261185.883	1393.407
261185.911	1388.278
261185.913	1383.150
261185.930	1379.487
261185.938	1377.289
261185.968	1377.289
261185.983	1380.952
261185.990	1387.546
261186.014	1397.070
261186.020	1406.593
261186.036	1414.652
261186.053	1419.048
261186.078	1419.780
261186.103	1415.385
261186.104	1408.791
261186.129	1400.733
261186.139	1394.139
261186.140	1386.813
261186.174	1381.685
261186.208	1379.487
261186.209	1379.487
261186.218	1380.220
261186.226	1382.418
261186.240	1386.081
261186.258	1389.011
261186.271	1392.674
261186.299	1395.604
261186.331	1396.337
261186.333	1396.337
261186.334	1394.872
261186.350	1394.139
261186.364	1393.407
261186.381	1394.872
261186.391	1395.604
261186.414	1397.802
261186.440	1397.802
261186.441	1397.070
261186.460	1394.872
261186.470	1393.407
261186.499	1391.209
261186.500	1392.674
261186.528	1394.872
261186.553	1400.000
261186.554	1405.128
261186.561	1411.722
261186.586	1413.919
261186.595	1412.454
261186.614	1407.326
261186.636	1401.465
261186.665	1394.872
261186.666	1389.011
261186.681	1384.615
261186.696	1383.150
261186.724	1382.418
261186.738	1383.150
261186.739	1384.615
261186.755	1386.813
261186.781	1388.278
261186.783	1391.209
261186.806	1392.674
261186.818	1395.604
261186.826	1396.337
261186.851	1396.337
261186.879	1396.337
261186.880	1395.604
261186.905	1394.872
261186.906	1393.407
261186.933	1391.941
261186.940	1391.941
261186.965	1391.209
261186.973	1390.476
261186.991	1391.209
261187.023	1393.407
261187.033	1397.802
261187.034	1405.128
261187.061	1410.989
261187.063	1416.117
261187.088	1416.850
261187.097	1416.117
261187.115	1411.722
261187.145	1407.326
261187.164	1400.000
261187.165	1394.139
261187.183	1388.278
261187.196	1384.615
261187.220	1380.952
261187.221	1380.952
261187.273	1381.685
261187.274	1384.615
261187.276	1386.813
261187.290	1389.011
261187.311	1390.476
261187.321	1391.941
261187.331	1391.209
261187.356	1392.674
261187.389	1392.674
261187.390	1393.407
261187.410	1392.674
261187.411	1392.674
261187.430	1391.941
261187.441	1391.941
261187.458	1390.476
261187.486	1391.209
261187.488	1391.209
261187.513	1394.139
261187.523	1397.070
261187.536	1403.663
261187.555	1410.989
261187.580	1417.582
261187.581	1421.245
261187.621	1421.245
261187.623	1416.117
261187.648	1409.524
261187.655	1400.000
261187.664	1392.674
261187.681	1386.813
261187.694	1382.418
261187.704	1380.220
261187.738	1380.220
261187.745	1381.685
261187.759	1383.883
261187.775	1386.081
261187.785	1388.278
261187.813	1389.744
261187.814	1391.941
261187.830	1394.139
261187.858	1395.604
261187.859	1395.604
261187.883	1395.604
261187.896	1394.872
261187.914	1394.139
261187.930	1393.407
261187.939	1391.941
261187.970	1389.744
261187.996	1389.011
261187.997	1388.278
261188.023	1389.744
261188.024	1392.674
261188.031	1399.267
261188.063	1405.861
261188.094	1413.919
261188.095	1418.315
261188.106	1421.245
261188.120	1420.513
261188.128	1415.385
261188.141	1407.326
261188.165	1398.535
261188.198	1389.744
261188.199	1383.883
261188.221	1380.952
261188.223	1380.220
261188.240	1381.685
261188.264	1383.150
261188.265	1384.615
261188.289	1387.546
261188.299	1389.744
261188.325	1391.209
261188.326	1391.209
261188.348	1392.674
261188.370	1392.674
261188.384	1392.674
261188.394	1392.674
261188.413	1393.407
261188.446	1393.407
261188.448	1392.674
261188.460	1391.209
261188.470	1390.476
261188.489	1389.744
261188.510	1391.941
261188.526	1391.209
261188.536	1395.604
261188.569	1402.198
261188.570	1410.256
261188.589	1416.850
261188.603	1419.780
261188.613	1419.048
261188.638	1415.385
261188.658	1407.326
261188.683	1400.733
261188.684	1393.407
261188.706	1389.011
261188.719	1384.615
261188.729	1382.418
261188.747	1380.952
261188.760	1380.952
261188.766	1382.418
261188.795	1385.348
261188.796	1387.546
261188.818	1390.476
261188.830	1393.407
261188.855	1394.872
261188.856	1395.604
261188.888	1396.337
261188.889	1394.872
261188.921	1394.139
261188.923	1394.139
261188.946	1393.407
261188.960	1392.674
261188.971	1391.941
261188.995	1391.209
261189.005	1390.476
261189.039	1390.476
261189.040	1391.209
261189.054	1393.407
261189.064	1399.267
261189.088	1406.593
261189.095	1413.919
261189.119	1420.513
261189.151	1421.978
261189.164	1419.780
261189.165	1413.919
261189.179	1406.593
261189.197	1400.000
261189.208	1392.674
261189.234	1388.278
261189.264	1383.150
261189.265	1380.952
261189.291	1379.487
261189.317	1380.220
261189.318	1381.685
261189.321	1386.081
261189.335	1389.744
261189.348	1393.407
261189.379	1394.872
261189.380	1396.337
261189.403	1397.070
261189.413	1397.070
261189.430	1396.337
261189.436	1396.337
261189.461	1395.604
261189.480	1394.872
261189.512	1393.407
261189.513	1393.407
261189.519	1391.941
261189.530	1390.476
261189.558	1390.476
261189.569	1391.941
261189.594	1395.604
261189.599	1402.198
261189.628	1409.524
261189.629	1416.850
261189.654	1420.513
261189.661	1420.513
261189.686	1417.582
261189.695	1411.722
261189.720	1405.128
261189.721	1397.802
261189.753	1391.941
261189.764	1389.744
261189.781	1387.546
261189.786	1385.348
261189.811	1384.615
261189.813	1384.615
261189.831	1385.348
261189.863	1388.278
261189.875	1391.209
261189.877	1394.139
261189.905	1394.872
261189.936	1396.337
261189.943	1397.802
261189.944	1398.535
261189.976	1397.802
261189.978	1397.802
261189.998	1397.070
261190.012	1397.070
261190.024	1394.872
261190.034	1395.604
261190.059	1394.872
261190.085	1395.604
261190.086	1395.604
261190.104	1397.802
261190.114	1400.733
261190.139	1407.326
261190.153	1413.919
261190.170	1420.513
261190.171	1422.711
261190.211	1421.978
261190.213	1416.850
261190.226	1410.989
261190.248	1405.128
261190.258	1400.000
261190.278	1397.070
261190.288	1394.872
261190.299	1392.674
261190.336	1391.209
261190.338	1389.011
261190.346	1388.278
261190.361	1386.081
261190.384	1385.348
261190.394	1386.081
261190.419	1387.546
261190.460	1388.278
261190.461	1389.744
261190.465	1389.744
261190.472	1390.476
261190.494	1389.744
261190.519	1389.011
261190.520	1388.278
261190.530	1388.278
261190.560	1388.278
261190.586	1388.278
261190.588	1389.011
261190.618	1391.941
261190.619	1397.802
261190.636	1408.059
261190.651	1419.780
261190.661	1428.571
261190.690	1434.432
261190.704	1433.700
261190.718	1426.374
261190.728	1417.582
261190.741	1408.059
261190.760	1400.733
261190.794	1392.674
261190.795	1383.883
261190.820	1371.429
261190.821	1359.707
261190.839	1350.183
261190.853	1345.055
261190.861	1343.590
261190.885	1346.520
261190.891	1352.381
261190.918	1361.172
261190.919	1369.231
261190.936	1378.755
261190.966	1389.011
261190.983	1399.267
261190.990	1407.326
261191.009	1413.187
261191.034	1414.652
261191.035	1413.187
261191.053	1409.524
261191.066	1406.593
261191.090	1404.396
261191.091	1406.593
261191.116	1412.454
261191.126	1421.978
261191.155	1434.432
261191.170	1446.154
261191.199	1452.747
261191.200	1453.480
261191.215	1449.084
261191.228	1441.758
261191.238	1432.234
261191.263	1421.245
261191.285	1409.524
261191.287	1399.267
261191.309	1389.011
261191.324	1380.952
261191.325	1375.092
261191.354	1371.429
261191.369	1369.963
261191.402	1369.231
261191.403	1370.696
261191.409	1374.359
261191.435	1378.755
261191.436	1383.150
261191.461	1388.278
261191.480	1391.941
261191.518	1394.139
261191.519	1394.872
261191.526	1394.872
261191.531	1394.872
261191.553	1395.604
261191.576	1394.139
261191.585	1393.407
261191.595	1394.139
261191.626	1394.139
261191.646	1396.337
261191.650	1400.000
261191.663	1404.396
261191.677	1407.326
261191.694	1411.722
261191.708	1414.652
261191.745	1414.652
261191.746	1410.256
261191.768	1404.396
261191.769	1397.802
261191.786	1393.407
261191.800	1391.941
261191.833	1391.941
261191.834	1390.476
261191.859	1386.813
261191.885	1380.952
261191.886	1373.626
261191.900	1366.300
261191.913	1361.172
261191.938	1358.974
261191.939	1359.707
261191.964	1364.835
261191.990	1370.696
261191.991	1376.557
261192.004	1383.883
261192.021	1389.011
261192.038	1392.674
261192.058	1394.872
261192.080	1396.337
261192.110	1397.070
261192.111	1398.535
261192.116	1398.535
261192.148	1394.139
261192.149	1382.418
261192.160	1369.963
261192.185	1364.835
261192.193	1372.161
261192.220	1388.278
261192.230	1410.989
261192.248	1431.502
261192.256	1442.491
261192.270	1444.689
261192.295	1442.491
261192.308	1435.165
261192.335	1426.374
261192.336	1415.385
261192.354	1404.396
261192.370	1391.209
261192.384	1378.022
261192.405	1367.033
261192.406	1360.440
261192.440	1360.440
261192.441	1367.766
261192.466	1380.220
261192.468	1395.604
261192.495	1410.256
261192.513	1423.443
261192.523	1431.502
261192.533	1433.700
261192.554	1430.769
261192.583	1424.176
261192.584	1416.117
261192.609	1407.326
261192.616	1400.733
261192.630	1396.337
261192.644	1394.139
261192.675	1395.604
261192.709	1403.663
261192.710	1413.919
261192.711	1423.443
261192.729	1430.769
261192.748	1428.571
261192.755	1419.048
261192.775	1404.396
261192.790	1392.674
261192.817	1390.476
261192.834	1396.337
261192.835	1402.198
261192.854	1405.861
261192.869	1405.861
261192.883	1406.593
261192.903	1408.791
261192.929	1412.454
261192.945	1414.652
261192.947	1413.919
261192.959	1410.256
261192.984	1405.861
261192.993	1400.000
261193.015	1394.872
261193.024	1391.209
261193.055	1388.278
261193.056	1388.278
261193.071	1392.674
261193.090	1397.802
261193.115	1400.000
261193.116	1400.000
261193.140	1399.267
261193.168	1397.802
261193.169	1399.267
261193.175	1402.930
261193.195	1410.256
261193.220	1419.780
261193.221	1427.839
261193.236	1430.037
261193.266	1427.106
261193.291	1421.245
261193.293	1414.652
261193.298	1405.128
261193.319	1396.337
261193.329	1389.011
261193.350	1383.883
261193.364	1380.220
261193.381	1378.022
261193.406	1374.359
261193.408	1374.359
261193.433	1375.092
261193.434	1376.557
261193.466	1378.755
261193.483	1381.685
261193.491	1383.883
261193.518	1386.813
261193.519	1387.546
261193.539	1388.278
261193.568	1389.744
261193.578	1390.476
261193.585	1391.941
261193.599	1394.872
261193.618	1398.535
261193.649	1403.663
261193.656	1408.059
261193.658	1413.919
261193.689	1420.513
261193.690	1429.304
261193.715	1434.432
261193.724	1432.967
261193.734	1426.374
261193.764	1417.582
261193.790	1409.524
261193.791	1405.128
261193.811	1401.465
261193.813	1399.267
261193.831	1395.604
261193.848	1392.674
261193.880	1389.011
261193.893	1385.348
261193.903	1380.220
261193.914	1376.557
261193.939	1375.092
261193.949	1378.022
261193.961	1383.150
261193.995	1388.278
261193.996	1391.941
261194.008	1395.604
261194.019	1398.535
261194.034	1400.733
261194.058	1402.198
261194.064	1402.930
261194.086	1402.198
261194.113	1400.733
261194.114	1400.000
261194.125	1400.000
261194.139	1398.535
261194.164	1397.070
261194.183	1396.337
261194.195	1394.872
261194.225	1393.407
261194.227	1392.674
261194.243	1393.407
261194.259	1395.604
261194.284	1401.465
261194.285	1407.326
261194.306	1411.722
261194.320	1414.652
261194.349	1415.385
261194.350	1412.454
261194.358	1405.861
261194.385	1398.535
261194.416	1390.476
261194.418	1384.615
261194.421	1379.487
261194.465	1375.824
261194.466	1372.894
261194.481	1372.161
261194.489	1374.359
261194.522	1380.952
261194.529	1389.744
261194.538	1397.802
261194.563	1405.128
261194.590	1408.791
261194.603	1408.791
261194.605	1407.326
261194.631	1405.128
261194.634	1402.198
261194.656	1398.535
261194.658	1396.337
261194.683	1394.139
261194.713	1391.209
261194.714	1387.546
261194.724	1384.615
261194.739	1380.952
261194.759	1380.220
261194.790	1380.952
261194.791	1383.883
261194.821	1389.011
261194.823	1397.070
261194.840	1405.861
261194.855	1412.454
261194.860	1415.385
261194.885	1416.117
261194.891	1413.187
261194.916	1408.791
261194.918	1403.663
261194.946	1397.802
261194.959	1393.407
261194.981	1391.209
261194.990	1387.546
261195.015	1386.813
261195.016	1384.615
261195.046	1386.081
261195.073	1386.813
261195.088	1389.744
261195.089	1391.209
261195.110	1394.139
261195.111	1395.604
261195.138	1396.337
261195.153	1394.139
261195.181	1391.941
261195.183	1390.476
261195.196	1389.744
261195.206	1389.744
261195.223	1391.209
261195.233	1391.941
261195.260	1392.674
261195.286	1393.407
261195.288	1394.872
261195.308	1395.604
261195.321	1397.070
261195.328	1400.733
261195.351	1405.128
261195.373	1410.256
261195.379	1411.722
261195.406	1410.989
261195.431	1408.059
261195.433	1402.198
261195.449	1396.337
261195.458	1390.476
261195.475	1386.813
261195.490	1383.150
261195.515	1382.418
261195.516	1383.883
261195.541	1385.348
261195.555	1386.813
261195.578	1389.011
261195.584	1390.476
261195.604	1391.941
261195.614	1393.407
261195.648	1394.139
261195.648	1394.139
261195.674	1394.139
261195.699	1394.139
261195.700	1394.139
261195.718	1392.674
261195.733	1391.941
261195.734	1391.941
261195.770	1391.209
261195.779	1390.476
261195.789	1391.941
261195.813	1392.674
261195.814	1392.674
261195.830	1392.674
261195.849	1395.604
261195.864	1400.000
261195.890	1404.396
261195.891	1408.059
261195.913	1410.256
261195.926	1410.256
261195.947	1406.593
261195.961	1401.465
261195.980	1396.337
261196.011	1391.941
261196.015	1388.278
261196.021	1386.813
261196.031	1386.081
261196.056	1386.081
261196.073	1386.813
261196.086	1388.278
261196.127	1389.011
261196.128	1391.209
261196.143	1394.139
261196.168	1395.604
261196.178	1397.802
261196.188	1399.267
261196.194	1400.733
261196.210	1400.733
261196.239	1400.000
261196.240	1397.802
261196.258	1395.604
261196.275	1396.337
261196.289	1395.604
261196.314	1395.604
261196.315	1396.337
261196.336	1397.802
261196.363	1397.802
261196.371	1400.000
261196.378	1402.198
261196.411	1404.396
261196.413	1405.128
261196.438	1405.861
261196.446	1404.396
261196.481	1402.930
261196.484	1399.267
261196.498	1398.535
261196.506	1395.604
261196.525	1393.407
261196.535	1391.209
261196.554	1389.744
261196.568	1390.476
261196.603	1389.744
261196.604	1386.813
261196.613	1387.546
261196.636	1389.744
261196.638	1394.139
261196.663	1397.802
261196.671	1398.535
261196.704	1394.872
261196.705	1391.941
261196.730	1389.011
261196.731	1389.011
261196.760	1390.476
261196.768	1392.674
261196.791	1394.139
261196.798	1394.139
261196.828	1395.604
261196.829	1396.337
261196.849	1399.267
261196.870	1402.930
261196.880	1406.593
261196.904	1410.256
261196.914	1413.919
261196.951	1415.385
261196.978	1412.454
261196.979	1406.593
261197.000	1400.000
261197.001	1392.674
261197.015	1384.615
261197.020	1379.487
261197.030	1376.557
261197.056	1377.289
261197.080	1378.022
261197.086	1382.418
261197.103	1386.813
261197.119	1392.674
261197.134	1397.070
261197.143	1401.465
261197.168	1404.396
261197.169	1405.128
261197.195	1402.930
261197.209	1402.198
261197.234	1400.000
261197.234	1397.070
261197.263	1394.872
261197.296	1394.872
261197.298	1393.407
261197.316	1394.139
261197.319	1394.139
261197.333	1393.407
261197.356	1394.872
261197.361	1397.070
261197.380	1400.733
261197.411	1405.861
261197.413	1409.524
261197.428	1410.989
261197.448	1409.524
261197.458	1405.861
261197.483	1402.198
261197.489	1398.535
261197.510	1394.139
261197.536	1390.476
261197.538	1387.546
261197.553	1386.813
261197.575	1386.081
261197.600	1386.813
261197.601	1388.278
261197.616	1390.476
261197.635	1391.941
261197.660	1393.407
261197.661	1394.872
261197.685	1395.604
261197.699	1395.604
261197.714	1394.872
261197.728	1394.139
261197.735	1394.139
261197.766	1392.674
261197.789	1393.407
261197.791	1394.139
261197.808	1393.407
261197.818	1393.407
261197.828	1394.139
261197.855	1395.604
261197.895	1400.000
261197.896	1405.861
261197.905	1409.524
261197.911	1411.722
261197.931	1410.989
261197.953	1407.326
261197.958	1402.198
261197.975	1397.070
261198.000	1392.674
261198.024	1389.744
261198.025	1388.278
261198.040	1386.081
261198.051	1386.081
261198.078	1385.348
261198.086	1385.348
261198.095	1386.813
261198.129	1390.476
261198.149	1391.941
261198.155	1395.604
261198.170	1395.604
261198.178	1397.070
261198.200	1395.604
261198.201	1394.139
261198.234	1391.941
261198.235	1391.209
261198.260	1389.744
261198.286	1389.744
261198.288	1388.278
261198.294	1388.278
261198.320	1386.813
261198.334	1390.476
261198.371	1394.872
261198.373	1400.733
261198.380	1407.326
261198.391	1411.722
261198.424	1413.187
261198.425	1410.989
261198.448	1405.861
261198.463	1400.733
261198.496	1394.872
261198.501	1389.744
261198.529	1386.081
261198.535	1383.883
261198.535	1382.418
261198.560	1383.150
261198.561	1383.883
261198.590	1385.348
261198.616	1386.813
261198.618	1389.744
261198.636	1391.941
261198.638	1393.407
261198.661	1394.872
261198.683	1395.604
261198.696	1397.070
261198.725	1396.337
261198.726	1395.604
261198.738	1394.139
261198.755	1393.407
261198.784	1392.674
261198.785	1393.407
261198.808	1393.407
261198.816	1394.139
261198.841	1397.070
261198.849	1400.000
261198.878	1405.128
261198.879	1408.791
261198.898	1411.722
261198.909	1409.524
261198.943	1406.593
261198.969	1400.733
261198.970	1396.337
261198.984	1390.476
261199.008	1387.546
261199.009	1386.081
261199.024	1386.081
261199.036	1386.081
261199.051	1386.813
261199.083	1387.546
261199.085	1389.011
261199.109	1391.209
261199.115	1393.407
261199.134	1394.139
261199.141	1395.604
261199.165	1396.337
261199.204	1396.337
261199.205	1394.139
261199.215	1394.139
261199.226	1393.407
261199.248	1393.407
261199.258	1394.139
261199.283	1393.407
261199.284	1393.407
261199.310	1394.139
261199.318	1394.872
261199.327	1398.535
261199.355	1402.930
261199.356	1408.791
261199.381	1410.989
261199.393	1412.454
261199.423	1410.256
261199.424	1405.128
261199.450	1398.535
261199.483	1392.674
261199.485	1387.546
261199.487	1386.813
261199.516	1386.813
261199.541	1386.813
261199.543	1388.278
261199.569	1390.476
261199.584	1390.476
261199.585	1391.209
261199.595	1391.209
261199.614	1391.209
261199.628	1390.476
261199.641	1391.209
261199.675	1391.209
261199.689	1393.407
261199.695	1395.604
261199.719	1396.337
261199.726	1396.337
261199.741	1396.337
261199.756	1394.872
261199.791	1394.139
261199.794	1393.407
261199.795	1394.139
261199.820	1392.674
261199.831	1393.407
261199.856	1394.872
261199.868	1401.465
261199.899	1405.128
261199.900	1408.791
261199.915	1408.791
261199.940	1406.593
261199.948	1402.198
261199.959	1398.535
261199.985	1393.407
261199.996	1389.744
261200.023	1388.278
261200.024	1386.813
261200.035	1386.081
261200.053	1386.081
261200.070	1386.813
261200.090	1388.278
261200.109	1389.744
261200.110	1391.941
261200.140	1392.674
261200.165	1395.604
261200.167	1395.604
261200.192	1396.337
261200.193	1396.337
261200.213	1395.604
261200.226	1393.407
261200.256	1391.941
261200.266	1390.476
261200.268	1389.011
261200.289	1389.744
261200.305	1389.744
261200.319	1389.744
261200.329	1391.209
261200.349	1392.674
261200.368	1397.070
261200.386	1401.465
261200.404	1406.593
261200.410	1408.791
261200.436	1410.256
261200.451	1409.524
261200.463	1406.593
261200.493	1400.000
261200.506	1395.604
261200.514	1389.744
261200.520	1386.813
261200.540	1385.348
261200.555	1386.081
261200.571	1386.081
261200.586	1388.278
261200.613	1389.011
261200.626	1390.476
261200.645	1391.941
261200.646	1392.674
261200.663	1394.872
261200.677	1394.872
261200.691	1395.604
261200.716	1395.604
261200.740	1394.872
261200.741	1394.872
261200.755	1393.407
261200.774	1392.674
261200.806	1391.941
261200.808	1391.941
261200.820	1391.941
261200.855	1393.407
261200.856	1393.407
261200.866	1394.872
261200.896	1396.337
261200.903	1400.000
261200.913	1403.663
261200.942	1408.791
261200.968	1413.187
261200.969	1414.652
261200.984	1412.454
261200.989	1408.791
261201.009	1403.663
261201.023	1400.000
261201.036	1397.070
261201.055	1394.872
261201.088	1392.674
261201.089	1391.209
261201.104	1388.278
261201.115	1387.546
261201.140	1386.813
261201.141	1388.278
261201.160	1389.744
261201.185	1391.941
261201.208	1394.139
261201.209	1397.070
261201.224	1399.267
261201.239	1400.000
261201.258	1400.733
261201.283	1400.733
261201.290	1397.802
261201.324	1396.337
261201.325	1392.674
261201.333	1391.941
261201.354	1391.209
261201.369	1391.941
261201.383	1394.872
261201.407	1397.802
261201.408	1403.663
261201.440	1409.524
261201.466	1412.454
261201.468	1414.652
261201.489	1412.454
261201.490	1409.524
261201.513	1402.930
261201.523	1397.802
261201.549	1393.407
261201.571	1389.744
261201.573	1387.546
261201.588	1387.546
261201.605	1387.546
261201.619	1389.011
261201.625	1389.744
261201.643	1389.744
261201.673	1391.941
261201.674	1393.407
261201.695	1394.139
261201.709	1397.070
261201.725	1397.802
261201.735	1398.535
261201.760	1397.802
261201.763	1399.267
261201.796	1399.267
261201.808	1398.535
261201.821	1395.604
261201.835	1394.139
261201.850	1393.407
261201.864	1393.407
261201.888	1393.407
261201.916	1394.872
261201.918	1398.535
261201.920	1405.128
261201.945	1409.524
261201.958	1413.919
261201.981	1412.454
261201.991	1408.791
261202.021	1404.396
261202.023	1399.267
261202.041	1394.139
261202.058	1389.744
261202.083	1386.813
261202.084	1386.081
261202.104	1385.348
261202.114	1386.813
261202.146	1388.278
261202.153	1391.209
261202.163	1394.872
261202.171	1397.070
261202.196	1397.802
261202.205	1398.535
261202.224	1398.535
261202.238	1398.535
261202.266	1398.535
261202.276	1397.802
261202.288	1394.872
261202.296	1392.674
261202.321	1391.209
261202.328	1391.209
261202.355	1390.476
261202.381	1391.209
261202.383	1391.941
261202.399	1396.337
261202.416	1400.000
261202.430	1406.593
261202.451	1410.256
261202.458	1413.919
261202.498	1413.187
261202.499	1410.256
261202.519	1405.128
261202.543	1400.733
261202.544	1396.337
261202.554	1393.407
261202.573	1389.744
261202.589	1388.278
261202.614	1386.813
261202.615	1386.813
261202.638	1387.546
261202.641	1388.278
261202.666	1390.476
261202.693	1393.407
261202.694	1394.872
261202.730	1394.872
261202.731	1394.872
261202.756	1396.337
261202.758	1394.872
261202.769	1394.872
261202.788	1394.139
261202.798	1393.407
261202.821	1392.674
261202.829	1392.674
261202.854	1391.209
261202.868	1390.476
261202.890	1391.209
261202.899	1393.407
261202.918	1396.337
261202.925	1402.198
261202.955	1408.059
261202.956	1412.454
261202.981	1413.187
261202.991	1411.722
261203.003	1407.326
261203.028	1401.465
261203.029	1394.872
261203.054	1390.476
261203.065	1387.546
261203.090	1385.348
261203.091	1383.883
261203.118	1384.615
261203.128	1385.348
261203.143	1387.546
261203.171	1389.011
261203.173	1391.941
261203.203	1393.407
261203.204	1394.872
261203.229	1394.872
261203.230	1396.337
261203.281	1395.604
261203.283	1395.604
261203.288	1394.139
261203.296	1393.407
261203.327	1392.674
261203.338	1391.941
261203.363	1391.209
261203.379	1392.674
261203.380	1391.209
261203.401	1392.674
261203.416	1396.337
261203.456	1400.733
261203.464	1405.861
261203.465	1410.256
261203.476	1413.187
261203.490	1411.722
261203.514	1407.326
261203.521	1401.465
261203.533	1394.872
261203.563	1389.744
261203.564	1385.348
261203.581	1383.883
261203.596	1383.883
261203.620	1384.615
261203.626	1385.348
261203.644	1387.546
261203.679	1389.011
261203.700	1391.209
261203.701	1392.674
261203.713	1394.139
261203.735	1394.872
261203.736	1396.337
261203.755	1396.337
261203.768	1395.604
261203.803	1394.139
261203.804	1392.674
261203.816	1391.941
261203.836	1391.941
261203.851	1391.941
261203.861	1392.674
261203.880	1392.674
261203.894	1391.941
261203.926	1392.674
261203.928	1395.604
261203.949	1400.000
261203.961	1406.593
261203.971	1411.722
261204.001	1415.385
261204.003	1415.385
261204.039	1412.454
261204.040	1405.861
261204.049	1399.267
261204.074	1391.209
261204.084	1386.813
261204.094	1383.883
261204.118	1383.150
261204.129	1384.615
261204.154	1386.081
261204.174	1387.546
261204.185	1387.546
261204.193	1389.011
261204.216	1391.941
261204.223	1393.407
261204.234	1394.139
261204.274	1394.139
261204.275	1395.604
261204.286	1396.337
261204.311	1396.337
261204.313	1396.337
261204.333	1394.872
261204.352	1394.139
261204.376	1392.674
261204.401	1391.209
261204.403	1391.209
261204.413	1391.209
261204.438	1392.674
261204.444	1394.139
261204.459	1397.802
261204.475	1401.465
261204.511	1407.326
261204.513	1412.454
261204.520	1415.385
261204.538	1413.919
261204.553	1408.791
261204.566	1401.465
261204.590	1394.872
261204.635	1388.278
261204.636	1385.348
261204.663	1383.150
261204.679	1382.418
261204.680	1383.883
261204.681	1386.813
261204.696	1389.744
261204.701	1391.209
261204.736	1392.674
261204.738	1394.139
261204.760	1394.872
261204.768	1395.604
261204.793	1395.604
261204.796	1395.604
261204.823	1394.872
261204.824	1394.139
261204.849	1393.407
261204.875	1391.941
261204.876	1391.941
261204.905	1391.941
261204.906	1391.209
261204.931	1391.941
261204.950	1392.674
261204.988	1393.407
261204.989	1394.872
261204.992	1399.267
261205.011	1403.663
261205.018	1408.059
261205.033	1410.989
261205.059	1410.989
261205.060	1407.326
261205.085	1402.930
261205.113	1397.070
261205.119	1391.941
261205.129	1389.011
261205.143	1388.278
261205.168	1388.278
261205.176	1389.011
261205.201	1388.278
261205.203	1388.278
261205.228	1388.278
261205.234	1389.744
261205.259	1389.011
261205.284	1391.209
261205.285	1391.941
261205.311	1394.139
261205.344	1396.337
261205.345	1397.802
261205.354	1397.802
261205.369	1398.535
261205.380	1396.337
261205.405	1395.604
261205.410	1394.139
261205.430	1393.407
261205.456	1392.674
261205.469	1391.941
261205.481	1391.209
261205.489	1391.941
261205.513	1394.139
261205.520	1397.802
261205.529	1402.198
261205.584	1408.059
261205.585	1411.722
261205.591	1413.919
261205.610	1412.454
261205.611	1407.326
261205.628	1400.733
261205.644	1394.872
261205.660	1389.744
261205.696	1386.081
261205.698	1383.883
261205.713	1383.150
261205.729	1384.615
261205.734	1386.813
261205.758	1389.011
261205.774	1391.941
261205.785	1394.872
261205.816	1397.070
261205.818	1398.535
261205.828	1400.000
261205.848	1400.000
261205.873	1398.535
261205.883	1395.604
261205.918	1393.407
261205.919	1391.209
261205.944	1391.209
261205.970	1390.476
261205.971	1391.209
261205.976	1391.209
261205.989	1393.407
261206.018	1394.139
261206.019	1394.139
261206.049	1395.604
261206.050	1397.802
261206.063	1400.000
261206.083	1403.663
261206.106	1406.593
261206.118	1407.326
261206.143	1406.593
261206.144	1405.128
261206.169	1400.733
261206.170	1395.604
261206.198	1390.476
261206.204	1388.278
261206.229	1386.813
261206.230	1386.813
261206.280	1386.813
261206.281	1387.546
261206.300	1389.744
261206.315	1391.941
261206.316	1394.872
261206.333	1397.802
261206.356	1398.535
261206.368	1399.267
261206.398	1398.535
261206.399	1396.337
261206.410	1395.604
261206.429	1393.407
261206.439	1393.407
261206.465	1392.674
261206.466	1391.209
261206.491	1391.209
261206.524	1392.674
261206.525	1391.941
261206.533	1392.674
261206.558	1396.337
261206.559	1400.000
261206.586	1404.396
261206.605	1408.059
261206.634	1409.524
261206.635	1407.326
261206.641	1404.396
261206.661	1400.000
261206.686	1396.337
261206.699	1391.941
261206.725	1389.744
261206.754	1386.813
261206.755	1386.081
261206.764	1384.615
261206.765	1386.813
261206.792	1388.278
261206.808	1390.476
261206.818	1393.407
261206.839	1394.872
261206.874	1395.604
261206.875	1396.337
261206.883	1396.337
261206.900	1395.604
261206.909	1395.604
261206.934	1394.872
261206.949	1394.139
261206.963	1394.139
261206.994	1391.941
261206.995	1391.941
261207.011	1391.941
261207.020	1392.674
261207.031	1392.674
261207.050	1395.604
261207.074	1399.267
261207.084	1403.663
261207.114	1408.059
261207.115	1409.524
261207.131	1408.059
261207.155	1405.128
261207.165	1400.733
261207.194	1395.604
261207.219	1389.744
261207.220	1385.348
261207.245	1383.150
261207.246	1383.150
261207.256	1384.615
261207.266	1387.546
261207.291	1389.011
261207.309	1392.674
261207.340	1395.604
261207.351	1396.337
261207.356	1395.604
261207.358	1396.337
261207.384	1395.604
261207.391	1393.407
261207.417	1393.407
261207.424	1393.407
261207.463	1393.407
261207.464	1393.407
261207.480	1392.674
261207.494	1393.407
261207.500	1393.407
261207.524	1392.674
261207.534	1394.872
261207.550	1399.267
261207.585	1403.663
261207.586	1408.059
261207.603	1413.919
261207.615	1413.919
261207.639	1412.454
261207.640	1408.059
261207.663	1402.198
261207.672	1395.604
261207.708	1389.744
261207.715	1386.813
261207.733	1385.348
261207.734	1385.348
261207.761	1385.348
261207.763	1386.081
261207.793	1388.278
261207.815	1389.744
261207.816	1391.941
261207.849	1394.139
261207.850	1395.604
261207.871	1397.070
261207.888	1396.337
261207.895	1396.337
261207.910	1395.604
261207.939	1394.872
261207.946	1394.139
261207.963	1393.407
261207.968	1391.941
261207.993	1392.674
261208.018	1391.941
261208.024	1393.407
261208.058	1394.872
261208.059	1399.267
261208.066	1403.663
261208.089	1410.256
261208.090	1413.919
261208.115	1416.117
261208.124	1414.652
261208.164	1408.791
261208.165	1402.930
261208.183	1396.337
261208.194	1391.209
261208.205	1387.546
261208.234	1386.081
261208.235	1386.081
261208.254	1385.348
261208.288	1386.081
261208.289	1386.081
261208.303	1388.278
261208.321	1389.744
261208.330	1392.674
261208.380	1394.139
261208.381	1395.604
261208.383	1396.337
261208.419	1397.070
261208.420	1396.337
261208.423	1394.872
261208.449	1392.674
261208.475	1392.674
261208.476	1391.209
261208.493	1390.476
261208.524	1391.209
261208.525	1393.407
261208.531	1395.604
261208.551	1400.000
261208.583	1404.396
261208.584	1409.524
261208.594	1413.919
261208.619	1415.385
261208.648	1413.919
261208.649	1410.256
261208.663	1405.128
261208.673	1398.535
261208.700	1394.139
261208.708	1392.674
261208.733	1391.209
261208.738	1391.209
261208.764	1390.476
261208.765	1391.209
261208.790	1391.209
261208.810	1391.941
261208.819	1392.674
261208.833	1393.407
261208.850	1394.139
261208.888	1395.604
261208.889	1396.337
261208.893	1397.802
261208.918	1397.070
261208.925	1396.337
261208.949	1396.337
261208.958	1395.604
261208.974	1395.604
261209.005	1395.604
261209.008	1395.604
261209.021	1394.139
261209.038	1394.139
261209.054	1395.604
261209.079	1400.733
261209.080	1405.128
261209.120	1411.722
261209.121	1416.117
261209.147	1417.582
261209.148	1416.117
261209.169	1410.989
261209.184	1402.198
261209.199	1395.604
261209.200	1391.941
261209.233	1387.546
261209.234	1386.813
261209.256	1386.081
261209.269	1387.546
261209.293	1389.011
261209.305	1390.476
261209.320	1392.674
261209.330	1394.139
261209.356	1396.337
261209.373	1399.267
261209.388	1400.733
261209.403	1400.733
261209.414	1400.733
261209.431	1400.000
261209.473	1397.070
261209.474	1395.604
261209.484	1392.674
261209.494	1391.209
261209.500	1391.209
261209.525	1392.674
261209.531	1392.674
261209.561	1394.872
261209.597	1396.337
261209.598	1399.267
261209.604	1402.930
261209.618	1408.791
261209.641	1413.187
261209.643	1416.850
261209.674	1416.117
261209.675	1413.187
261209.705	1407.326
261209.706	1400.733
261209.725	1394.872
261209.735	1391.209
261209.761	1388.278
261209.779	1386.081
261209.786	1386.081
261209.821	1386.813
261209.823	1388.278
261209.838	1389.744
261209.854	1391.941
261209.878	1393.407
261209.879	1395.604
261209.904	1397.070
261209.911	1397.802
261209.939	1399.267
261209.950	1398.535
261209.961	1397.802
261209.971	1397.070
261209.994	1395.604
261210.001	1394.872
261210.023	1394.139
261210.036	1393.407
261210.065	1391.941
261210.066	1390.476
261210.090	1391.209
261210.091	1391.941
261210.117	1394.139
261210.126	1396.337
261210.149	1398.535
261210.178	1402.930
261210.179	1408.791
261210.190	1414.652
261210.214	1417.582
261210.228	1416.850
261210.236	1413.187
261210.260	1408.059
261210.271	1401.465
261210.308	1394.139
261210.309	1388.278
261210.319	1383.883
261210.328	1382.418
261210.353	1381.685
261210.362	1383.150
261210.408	1385.348
261210.409	1386.813
261210.434	1389.744
261210.450	1392.674
261210.453	1395.604
261210.463	1398.535
261210.478	1400.000
261210.488	1400.000
261210.512	1399.267
261210.538	1397.070
261210.539	1394.872
261210.554	1395.604
261210.586	1394.872
261210.588	1393.407
261210.613	1393.407
261210.619	1391.941
261210.654	1392.674
261210.655	1391.941
261210.661	1391.941
261210.685	1393.407
261210.696	1395.604
261210.714	1397.802
261210.723	1402.930
261210.738	1408.791
261210.778	1411.722
261210.779	1414.652
261210.789	1413.187
261210.799	1410.256
261210.820	1403.663
261210.830	1397.070
261210.854	1389.744
261210.886	1385.348
261210.888	1382.418
261210.902	1382.418
261210.913	1382.418
261210.923	1384.615
261210.949	1385.348
261210.959	1389.744
261210.971	1392.674
261211.003	1397.070
261211.004	1398.535
261211.036	1400.733
261211.038	1400.733
261211.061	1400.000
261211.079	1397.802
261211.080	1395.604
261211.111	1392.674
261211.113	1390.476
261211.135	1389.011
261211.140	1388.278
261211.165	1389.011
261211.191	1391.209
261211.193	1391.941
261211.216	1392.674
261211.246	1393.407
261211.255	1394.139
261211.261	1396.337
261211.263	1399.267
261211.288	1403.663
261211.296	1408.059
261211.321	1410.256
261211.329	1411.722
261211.356	1408.791
261211.371	1404.396
261211.389	1399.267
261211.404	1394.139
261211.413	1389.744
261211.441	1386.081
261211.453	1384.615
261211.454	1383.883
261211.479	1386.081
261211.489	1386.813
261211.514	1389.011
261211.519	1390.476
261211.533	1392.674
261211.555	1394.872
261211.564	1395.604
261211.595	1397.802
261211.596	1397.070
261211.615	1395.604
261211.625	1394.872
261211.640	1392.674
261211.669	1390.476
261211.696	1389.011
261211.698	1389.011
261211.723	1389.011
261211.724	1389.744
261211.736	1391.209
261211.761	1393.407
261211.764	1394.872
261211.786	1395.604
261211.798	1396.337
261211.824	1398.535
261211.825	1401.465
261211.846	1405.128
261211.869	1408.791
261211.888	1411.722
261211.911	1410.256
261211.921	1406.593
261211.951	1402.198
261211.969	1395.604
261211.970	1390.476
261211.980	1385.348
261211.993	1382.418
261212.008	1380.952
261212.023	1382.418
261212.034	1385.348
261212.059	1388.278
261212.060	1391.209
261212.088	1394.139
261212.093	1396.337
261212.119	1398.535
261212.129	1399.267
261212.144	1399.267
261212.184	1397.802
261212.185	1396.337
261212.205	1394.872
261212.206	1393.407
261212.228	1392.674
261212.236	1391.941
261212.260	1390.476
261212.266	1391.209
261212.299	1391.941
261212.300	1392.674
261212.329	1392.674
261212.330	1391.941
261212.355	1392.674
261212.356	1394.139
261212.383	1397.070
261212.396	1403.663
261212.429	1409.524
261212.430	1412.454
261212.443	1413.187
261212.458	1410.256
261212.474	1404.396
261212.490	1397.802
261212.500	1391.941
261212.529	1387.546
261212.530	1383.883
261212.553	1383.150
261212.566	1382.418
261212.581	1384.615
261212.610	1386.813
261212.611	1389.744
261212.636	1392.674
261212.638	1395.604
261212.668	1397.802
261212.687	1400.733
261212.692	1400.733
261212.718	1400.000
261212.720	1397.802
261212.734	1396.337
261212.770	1394.139
261212.771	1392.674
261212.793	1390.476
261212.808	1389.744
261212.825	1390.476
261212.826	1391.941
261212.855	1391.209
261212.856	1392.674
261212.903	1393.407
261212.904	1394.872
261212.911	1397.070
261212.927	1402.930
261212.968	1407.326
261212.969	1413.919
261212.976	1414.652
261212.990	1413.919
261213.016	1409.524
261213.018	1402.930
261213.028	1394.872
261213.059	1389.011
261213.065	1383.883
261213.091	1380.952
261213.100	1379.487
261213.125	1381.685
261213.145	1385.348
261213.151	1389.744
261213.166	1393.407
261213.195	1397.070
261213.196	1400.000
261213.213	1401.465
261213.223	1400.733
261213.249	1400.000
261213.264	1397.802
261213.276	1394.872
261213.291	1391.941
261213.307	1391.941
261213.318	1390.476
261213.330	1390.476
261213.355	1391.209
261213.381	1391.941
261213.384	1391.209
261213.410	1389.744
261213.411	1389.011
261213.426	1390.476
261213.451	1391.941
261213.458	1397.070
261213.485	1402.198
261213.486	1408.059
261213.510	1414.652
261213.524	1417.582
261213.534	1416.850
261213.559	1412.454
261213.570	1405.128
261213.598	1397.802
261213.599	1391.209
261213.624	1386.081
261213.648	1383.150
261213.649	1381.685
261213.668	1381.685
261213.682	1383.150
261213.693	1385.348
261213.729	1389.744
261213.730	1392.674
261213.733	1396.337
261213.761	1399.267
261213.775	1399.267
261213.790	1398.535
261213.802	1398.535
261213.834	1396.337
261213.835	1395.604
261213.854	1394.139
261213.870	1394.139
261213.883	1393.407
261213.908	1392.674
261213.909	1391.209
261213.935	1391.209
261213.961	1389.744
261213.963	1390.476
261213.984	1391.941
261213.985	1395.604
261214.014	1400.733
261214.019	1406.593
261214.034	1412.454
261214.053	1415.385
261214.081	1413.187
261214.083	1409.524
261214.108	1402.198
261214.115	1396.337
261214.129	1390.476
261214.143	1386.081
261214.168	1383.883
261214.194	1384.615
261214.195	1384.615
261214.210	1386.813
261214.239	1390.476
261214.256	1393.407
261214.258	1395.604
261214.268	1397.070
261214.286	1397.070
261214.318	1398.535
261214.319	1397.802
261214.325	1397.070
261214.351	1395.604
261214.368	1394.872
261214.380	1393.407
261214.399	1394.872
261214.430	1394.872
261214.432	1394.872
261214.454	1394.139
261214.455	1393.407
261214.469	1393.407
261214.494	1394.872
261214.500	1396.337
261214.524	1400.733
261214.558	1405.861
261214.559	1410.989
261214.574	1414.652
261214.584	1416.117
261214.594	1413.187
261214.619	1408.059
261214.626	1400.000
261214.655	1391.941
261214.675	1385.348
261214.678	1380.220
261214.701	1377.289
261214.703	1375.824
261214.724	1377.289
261214.734	1381.685
261214.758	1385.348
261214.783	1391.209
261214.784	1395.604
261214.810	1399.267
261214.815	1400.000
261214.829	1400.733
261214.851	1398.535
261214.878	1397.070
261214.903	1394.872
261214.904	1394.139
261214.928	1391.941
261214.929	1391.941
261214.941	1391.209
261214.966	1391.209
261214.968	1391.209
261214.989	1392.674
261215.018	1394.139
261215.019	1398.535
261215.041	1403.663
261215.057	1409.524
261215.076	1411.722
261215.078	1412.454
261215.105	1408.059
261215.114	1403.663
261215.139	1397.070
261215.140	1392.674
261215.166	1389.011
261215.173	1386.081
261215.196	1383.883
261215.213	1383.883
261215.225	1384.615
261215.235	1388.278
261215.263	1390.476
261215.276	1394.139
261215.289	1396.337
261215.314	1399.267
261215.315	1400.000
261215.330	1400.733
261215.364	1399.267
261215.365	1398.535
261215.388	1395.604
261215.389	1394.872
261215.418	1393.407
261215.424	1392.674
261215.439	1391.209
261215.461	1391.209
261215.468	1389.744
261215.499	1390.476
261215.500	1393.407
261215.525	1399.267
261215.550	1405.861
261215.551	1412.454
261215.572	1415.385
261215.581	1416.117
261215.618	1413.187
261215.619	1407.326
261215.636	1400.733
261215.638	1394.139
261215.670	1388.278
261215.684	1384.615
261215.694	1381.685
261215.724	1382.418
261215.725	1383.150
261215.741	1385.348
261215.758	1388.278
261215.773	1391.209
261215.791	1394.139
261215.815	1396.337
261215.816	1397.802
261215.848	1398.535
261215.849	1398.535
261215.874	1398.535
261215.879	1396.337
261215.904	1394.139
261215.910	1391.941
261215.935	1391.209
261215.971	1389.744
261215.973	1389.011
261215.985	1388.278
261215.986	1389.744
261216.011	1392.674
261216.019	1398.535
261216.033	1404.396
261216.058	1410.989
261216.088	1413.187
261216.089	1413.919
261216.099	1409.524
261216.124	1405.128
261216.134	1399.267
261216.163	1392.674
261216.164	1387.546
261216.175	1386.081
261216.208	1384.615
261216.209	1386.081
261216.223	1386.081
261216.238	1387.546
261216.266	1388.278
261216.279	1389.744
261216.289	1392.674
261216.318	1394.872
261216.331	1396.337
261216.333	1397.070
261216.350	1397.802
261216.359	1397.070
261216.384	1396.337
261216.402	1394.872
261216.415	1392.674
261216.448	1391.209
261216.449	1389.011
261216.456	1387.546
261216.474	1386.081
261216.489	1388.278
261216.505	1392.674
261216.523	1400.733
261216.556	1408.791
261216.558	1416.117
261216.564	1420.513
261216.594	1421.245
261216.595	1414.652
261216.614	1407.326
261216.629	1398.535
261216.641	1390.476
261216.673	1383.883
261216.688	1380.952
261216.689	1379.487
261216.718	1380.220
261216.728	1381.685
261216.736	1383.883
261216.760	1387.546
261216.771	1391.209
261216.796	1393.407
261216.798	1397.070
261216.823	1400.733
261216.845	1402.930
261216.846	1403.663
261216.871	1403.663
261216.880	1401.465
261216.913	1399.267
261216.914	1395.604
261216.928	1393.407
261216.941	1390.476
261216.958	1388.278
261216.986	1387.546
261216.988	1389.011
261217.013	1391.209
261217.040	1394.872
261217.041	1400.733
261217.064	1407.326
261217.074	1410.989
261217.085	1413.919
261217.109	1413.187
261217.124	1409.524
261217.153	1403.663
261217.154	1397.802
261217.161	1391.941
261217.175	1388.278
261217.199	1386.081
261217.200	1386.813
261217.228	1386.081
261217.234	1386.813
261217.265	1387.546
261217.279	1389.011
261217.288	1391.209
261217.302	1392.674
261217.325	1394.872
261217.326	1397.802
261217.349	1399.267
261217.378	1400.733
261217.395	1399.267
261217.404	1398.535
261217.445	1396.337
261217.459	1395.604
261217.461	1393.407
261217.463	1392.674
261217.479	1391.209
261217.506	1389.744
261217.507	1390.476
261217.525	1392.674
261217.530	1397.070
261217.561	1403.663
261217.574	1408.791
261217.584	1413.187
261217.609	1414.652
261217.610	1412.454
261217.633	1405.128
261217.649	1398.535
261217.663	1393.407
261217.673	1387.546
261217.696	1383.150
261217.704	1380.952
261217.738	1380.952
261217.739	1382.418
261217.760	1383.883
261217.774	1388.278
261217.788	1391.941
261217.803	1395.604
261217.818	1398.535
261217.829	1400.733
261217.854	1399.267
261217.874	1398.535
261217.885	1395.604
261217.901	1395.604
261217.912	1394.139
261217.944	1392.674
261217.945	1389.744
261217.971	1389.744
261217.989	1388.278
261217.990	1389.011
261218.001	1389.011
261218.020	1390.476
261218.030	1391.941
261218.056	1397.070
261218.098	1401.465
261218.099	1408.059
261218.124	1413.187
261218.125	1416.117
261218.135	1415.385
261218.145	1410.989
261218.169	1403.663
261218.185	1397.070
261218.189	1389.744
261218.214	1385.348
261218.224	1382.418
261218.236	1383.150
261218.261	1383.150
261218.263	1385.348
261218.292	1387.546
261218.298	1390.476
261218.326	1392.674
261218.328	1396.337
261218.350	1397.802
261218.360	1399.267
261218.385	1398.535
261218.401	1398.535
261218.416	1396.337
261218.446	1393.407
261218.447	1391.941
261218.461	1391.941
261218.483	1391.209
261218.489	1391.209
261218.510	1389.744
261218.520	1389.744
261218.529	1390.476
261218.559	1391.941
261218.560	1394.139
261218.584	1400.000
261218.598	1405.861
261218.618	1411.722
261218.639	1413.919
261218.640	1413.187
261218.660	1408.059
261218.685	1402.930
261218.696	1395.604
261218.721	1391.209
261218.723	1386.813
261218.743	1384.615
261218.758	1383.883
261218.786	1386.081
261218.820	1386.813
261218.821	1389.744
261218.825	1391.941
261218.833	1394.872
261218.848	1396.337
261218.878	1398.535
261218.885	1397.802
261218.911	1398.535
261218.913	1397.070
261218.936	1397.070
261218.946	1395.604
261218.959	1394.872
261218.969	1394.139
261218.994	1394.139
261219.017	1392.674
261219.044	1392.674
261219.045	1392.674
261219.051	1396.337
261219.078	1400.000
261219.079	1405.861
261219.103	1410.989
261219.118	1415.385
261219.134	1416.117
261219.159	1414.652
261219.174	1408.791
261219.175	1402.930
261219.193	1396.337
261219.203	1390.476
261219.226	1386.813
261219.236	1384.615
261219.270	1384.615
261219.285	1386.813
261219.286	1387.546
261219.307	1391.209
261219.319	1392.674
261219.330	1395.604
261219.381	1397.070
261219.406	1398.535
261219.408	1400.000
261219.410	1400.733
261219.411	1400.000
261219.425	1398.535
261219.451	1397.070
261219.463	1393.407
261219.470	1391.941
261219.504	1391.209
261219.505	1391.209
261219.521	1392.674
261219.538	1395.604
261219.551	1400.733
261219.573	1405.861
261219.584	1411.722
261219.609	1416.117
261219.610	1419.048
261219.636	1418.315
261219.643	1413.919
261219.668	1406.593
261219.669	1399.267
261219.699	1392.674
261219.700	1388.278
261219.725	1386.081
261219.751	1386.081
261219.753	1386.813
261219.772	1389.011
261219.788	1390.476
261219.801	1393.407
261219.819	1394.872
261219.833	1397.070
261219.868	1397.070
261219.869	1398.535
261219.880	1399.267
261219.905	1399.267
261219.931	1397.802
261219.933	1396.337
261219.947	1394.872
261219.959	1394.872
261219.984	1393.407
261219.985	1393.407
261220.010	1393.407
261220.038	1395.604
261220.039	1398.535
261220.058	1402.930
261220.072	1409.524
261220.100	1416.850
261220.101	1420.513
261220.116	1421.978
261220.135	1418.315
261220.136	1412.454
261220.163	1405.128
261220.183	1399.267
261220.193	1393.407
261220.225	1389.744
261220.231	1386.081
261220.233	1385.348
261220.259	1385.348
261220.269	1386.813
261220.293	1389.011
261220.294	1390.476
261220.323	1393.407
261220.343	1397.070
261220.351	1399.267
261220.376	1400.733
261220.378	1401.465
261220.408	1401.465
261220.409	1399.267
261220.434	1397.070
261220.460	1395.604
261220.461	1394.872
261220.476	1393.407
261220.494	1392.674
261220.500	1391.941
261220.521	1391.941
261220.536	1393.407
261220.577	1396.337
261220.578	1403.663
261220.582	1412.454
261220.606	1420.513
261220.613	1424.908
261220.640	1424.176
261220.641	1421.245
261220.659	1413.919
261220.693	1406.593
261220.694	1398.535
261220.703	1392.674
261220.728	1387.546
261220.734	1385.348
261220.759	1384.615
261220.776	1384.615
261220.809	1387.546
261220.810	1389.744
261220.825	1391.209
261220.832	1393.407
261220.855	1396.337
261220.856	1399.267
261220.884	1400.733
261220.904	1402.198
261220.933	1402.198
261220.934	1402.198
261220.945	1400.733
261220.959	1398.535
261220.969	1397.070
261220.993	1395.604
261221.014	1394.139
261221.020	1392.674
261221.049	1391.941
261221.050	1393.407
261221.071	1394.872
261221.083	1399.267
261221.101	1405.861
261221.115	1413.187
261221.129	1419.780
261221.169	1423.443
261221.170	1422.711
261221.183	1420.513
261221.195	1415.385
261221.220	1409.524
261221.230	1401.465
261221.243	1397.070
261221.275	1391.941
261221.276	1388.278
261221.301	1386.813
261221.323	1385.348
261221.324	1384.615
261221.326	1384.615
261221.352	1385.348
261221.375	1386.813
261221.376	1389.744
261221.408	1392.674
261221.409	1395.604
261221.434	1399.267
261221.451	1401.465
261221.456	1402.198
261221.469	1400.000
261221.495	1397.802
261221.496	1394.872
261221.523	1393.407
261221.535	1391.941
261221.565	1390.476
261221.566	1389.011
261221.591	1391.941
261221.593	1394.872
261221.630	1401.465
261221.631	1408.059
261221.649	1416.117
261221.660	1419.780
261221.680	1421.245
261221.693	1419.048
261221.718	1413.187
261221.723	1404.396
261221.759	1397.070
261221.765	1391.209
261221.777	1387.546
261221.788	1383.883
261221.801	1383.150
261221.825	1383.883
261221.826	1385.348
261221.859	1387.546
261221.860	1389.011
261221.889	1390.476
261221.890	1393.407
261221.915	1395.604
261221.936	1397.070
261221.938	1397.802
261221.968	1399.267
261221.993	1399.267
261221.994	1399.267
261222.006	1397.802
261222.020	1397.070
261222.031	1394.139
261222.059	1391.941
261222.073	1391.209
261222.083	1391.209
261222.114	1392.674
261222.115	1391.941
261222.138	1391.941
261222.153	1394.872
261222.163	1397.070
261222.181	1405.128
261222.198	1411.722
261222.234	1419.048
261222.235	1422.711
261222.238	1422.711
261222.262	1417.582
261222.280	1409.524
261222.283	1400.733
261222.306	1392.674
261222.319	1386.081
261222.357	1382.418
261222.358	1380.952
261222.370	1381.685
261222.385	1384.615
261222.407	1386.813
261222.414	1388.278
261222.454	1391.941
261222.455	1394.139
261222.474	1395.604
261222.475	1397.070
261222.494	1399.267
261222.509	1399.267
261222.525	1398.535
261222.526	1397.070
261222.564	1396.337
261222.589	1394.139
261222.590	1392.674
261222.605	1391.209
261222.620	1391.209
261222.636	1389.744
261222.648	1390.476
261222.663	1391.209
261222.678	1392.674
261222.714	1392.674
261222.729	1393.407
261222.730	1395.604
261222.734	1400.733
261222.759	1406.593
261222.780	1413.187
261222.786	1417.582
261222.823	1417.582
261222.824	1414.652
261222.834	1409.524
261222.848	1402.198
261222.870	1394.872
261222.884	1389.744
261222.902	1385.348
261222.926	1383.150
261222.953	1381.685
261222.954	1383.150
261222.960	1383.883
261222.984	1386.081
261222.986	1388.278
261223.017	1390.476
261223.018	1394.139
261223.048	1396.337
261223.049	1397.802
261223.079	1398.535
261223.085	1397.802
261223.104	1396.337
261223.118	1394.872
261223.141	1392.674
261223.172	1391.209
261223.173	1390.476
261223.205	1390.476
261223.206	1389.744
261223.225	1390.476
261223.230	1389.744
261223.239	1390.476
261223.263	1390.476
261223.295	1391.209
261223.296	1392.674
261223.304	1395.604
261223.319	1399.267
261223.330	1405.128
261223.360	1410.989
261223.361	1416.117
261223.385	1416.850
261223.414	1413.919
261223.415	1408.059
261223.423	1400.733
261223.448	1394.872
261223.458	1389.011
261223.468	1384.615
261223.493	1381.685
261223.520	1380.952
261223.521	1380.952
261223.539	1381.685
261223.554	1384.615
261223.568	1387.546
261223.584	1391.941
261223.594	1394.139
261223.614	1397.802
261223.648	1399.267
261223.655	1400.000
261223.664	1399.267
261223.689	1396.337
261223.690	1393.407
261223.715	1390.476
261223.723	1389.011
261223.764	1388.278
261223.765	1388.278
261223.782	1388.278
261223.783	1387.546
261223.807	1389.011
261223.839	1388.278
261223.840	1389.744
261223.855	1391.941
261223.880	1393.407
261223.881	1396.337
261223.899	1400.733
261223.914	1405.861
261223.928	1412.454
261223.938	1416.117
261223.963	1416.117
261223.978	1411.722
261224.004	1405.861
261224.005	1397.070
261224.030	1389.744
261224.031	1383.150
261224.057	1379.487
261224.076	1377.289
261224.085	1378.022
261224.123	1380.220
261224.124	1384.615
261224.140	1388.278
261224.155	1392.674
261224.170	1396.337
261224.195	1399.267
261224.196	1400.000
261224.213	1400.000
261224.240	1399.267
261224.241	1397.070
261224.255	1395.604
261224.278	1391.941
261224.289	1389.011
261224.314	1387.546
261224.315	1385.348
261224.345	1383.883
261224.347	1383.883
261224.366	1384.615
261224.380	1386.813
261224.405	1389.011
261224.406	1390.476
261224.431	1391.941
261224.438	1393.407
261224.465	1398.535
261224.495	1405.128
261224.496	1410.256
261224.522	1412.454
261224.523	1412.454
261224.530	1408.791
261224.555	1402.198
261224.589	1395.604
261224.590	1389.011
261224.604	1383.883
261224.614	1380.220
261224.634	1378.755
261224.649	1378.755
261224.664	1380.220
261224.697	1384.615
261224.698	1388.278
261224.722	1391.941
261224.730	1394.139
261224.731	1396.337
261224.761	1396.337
261224.788	1396.337
261224.798	1396.337
261224.799	1395.604
261224.834	1393.407
261224.839	1391.209
261224.853	1389.011
261224.870	1387.546
261224.881	1387.546
261224.895	1389.011
261224.919	1389.744
261224.947	1390.476
261224.958	1390.476
261224.960	1391.209
261224.984	1394.139
261224.985	1397.070
261225.013	1399.267
261225.020	1405.128
261225.030	1409.524
261225.061	1413.919
261225.078	1413.187
261225.079	1410.256
261225.104	1404.396
261225.129	1397.802
261225.130	1389.744
261225.152	1383.883
261225.185	1380.952
261225.192	1378.755
261225.193	1378.022
261225.219	1379.487
261225.228	1381.685
261225.237	1381.685
261225.260	1389.011
261225.266	1391.941
261225.298	1395.604
261225.299	1397.070
261225.318	1397.070
261225.329	1397.070
261225.356	1395.604
261225.369	1395.604
261225.381	1391.941
261225.413	1391.209
261225.414	1389.744
261225.429	1389.744
261225.452	1389.011
261225.458	1389.011
261225.481	1389.011
261225.489	1389.011
261225.513	1389.744
261225.538	1391.941
261225.539	1395.604
261225.549	1401.465
261225.574	1407.326
261225.582	1411.722
261225.605	1413.187
261225.626	1410.989
261225.661	1406.593
261225.670	1401.465
261225.671	1394.872
261225.673	1390.476
261225.699	1386.813
261225.700	1384.615
261225.726	1382.418
261225.763	1382.418
261225.764	1383.150
261225.790	1386.081
261225.810	1388.278
261225.813	1391.941
261225.819	1393.407
261225.834	1395.604
261225.849	1395.604
261225.860	1396.337
261225.886	1396.337
261225.888	1396.337
261225.913	1394.872
261225.923	1393.407
261225.943	1391.941
261225.958	1391.209
261225.986	1390.476
261225.988	1390.476
261226.013	1390.476
261226.021	1392.674
261226.036	1394.139
261226.056	1397.070
261226.066	1402.930
261226.098	1408.059
261226.104	1413.187
261226.130	1414.652
261226.131	1413.187
261226.145	1409.524
261226.160	1402.930
261226.182	1397.070
261226.191	1390.476
261226.214	1386.081
261226.243	1383.150
261226.244	1381.685
261226.254	1381.685
261226.271	1383.883
261226.289	1385.348
261226.305	1387.546
261226.321	1389.744
261226.328	1392.674
261226.366	1395.604
261226.373	1397.070
261226.400	1398.535
261226.420	1398.535
261226.426	1397.802
261226.429	1396.337
261226.451	1394.139
261226.479	1391.941
261226.480	1389.011
261226.488	1388.278
261226.510	1387.546
261226.520	1389.744
261226.529	1391.941
261226.589	1396.337
261226.614	1402.198
261226.615	1408.791
261226.617	1413.187
261226.618	1415.385
261226.628	1413.187
261226.652	1409.524
261226.670	1402.198
261226.685	1395.604
261226.724	1389.011
261226.728	1385.348
261226.729	1383.150
261226.738	1383.150
261226.754	1383.150
261226.775	1384.615
261226.785	1385.348
261226.814	1387.546
261226.839	1389.744
261226.840	1391.209
261226.853	1392.674
261226.862	1394.139
261226.885	1395.604
261226.891	1396.337
261226.923	1395.604
261226.924	1394.872
261226.951	1393.407
261226.960	1391.941
261226.986	1390.476
261226.987	1388.278
261227.011	1387.546
261227.041	1387.546
261227.043	1389.011
261227.068	1393.407
261227.069	1399.267
261227.090	1405.861
261227.092	1410.989
261227.114	1413.919
261227.126	1413.919
261227.158	1410.989
261227.191	1405.861
261227.193	1398.535
261227.200	1392.674
261227.201	1388.278
261227.229	1384.615
261227.230	1382.418
261227.255	1382.418
261227.275	1382.418
261227.311	1383.883
261227.318	1385.348
261227.319	1386.813
261227.329	1389.011
261227.354	1390.476
261227.358	1393.407
261227.386	1394.139
261227.388	1396.337
261227.413	1397.802
261227.436	1397.070
261227.440	1396.337
261227.460	1394.872
261227.484	1392.674
261227.493	1391.209
261227.520	1389.744
261227.521	1389.744
261227.554	1389.744
261227.555	1389.744
261227.575	1392.674
261227.585	1396.337
261227.610	1402.930
261227.611	1408.791
261227.638	1413.919
261227.664	1416.117
261227.665	1414.652
261227.692	1409.524
261227.714	1402.930
261227.716	1395.604
261227.725	1389.744
261227.735	1386.081
261227.761	1383.883
261227.793	1382.418
261227.799	1383.150
261227.825	1383.150
261227.831	1385.348
261227.832	1387.546
261227.855	1389.011
261227.860	1391.209
261227.885	1392.674
261227.886	1393.407
261227.911	1394.872
261227.933	1394.872
261227.934	1394.872
261227.968	1394.139
261227.978	1394.872
261227.992	1394.872
261228.024	1393.407
261228.025	1391.941
261228.031	1391.209
261228.055	1390.476
261228.071	1390.476
261228.083	1389.011
261228.101	1388.278
261228.133	1389.744
261228.134	1393.407
261228.156	1400.733
261228.158	1409.524
261228.171	1416.850
261228.196	1420.513
261228.217	1419.048
261228.225	1416.117
261228.256	1409.524
261228.258	1402.198
261228.264	1395.604
261228.290	1389.011
261228.316	1385.348
261228.318	1383.883
261228.338	1382.418
261228.369	1383.150
261228.377	1383.150
261228.385	1384.615
261228.404	1386.081
261228.415	1389.744
261228.425	1390.476
261228.439	1392.674
261228.466	1394.872
261228.468	1396.337
261228.493	1397.070
261228.506	1397.070
261228.524	1397.070
261228.528	1395.604
261228.553	1394.872
261228.563	1392.674
261228.584	1391.209
261228.609	1391.209
261228.610	1389.744
261228.621	1390.476
261228.650	1389.744
261228.664	1389.744
261228.688	1389.744
261228.689	1393.407
261228.718	1398.535
261228.719	1405.861
261228.742	1412.454
261228.756	1417.582
261228.770	1418.315
261228.799	1415.385
261228.800	1408.791
261228.828	1401.465
261228.848	1394.139
261228.849	1389.011
261228.875	1385.348
261228.876	1383.883
261228.900	1381.685
261228.914	1383.150
261228.931	1383.150
261228.938	1384.615
261228.965	1386.813
261228.992	1389.011
261228.993	1391.209
261229.008	1394.139
261229.025	1395.604
261229.030	1397.802
261229.053	1397.802
261229.081	1397.070
261229.083	1394.872
261229.090	1393.407
261229.115	1391.941
261229.125	1390.476
261229.149	1389.744
261229.164	1389.011
261229.193	1389.011
261229.194	1389.744
261229.216	1391.941
261229.231	1392.674
261229.253	1395.604
261229.263	1400.733
261229.273	1407.326
261229.298	1412.454
261229.299	1414.652
261229.325	1413.919
261229.326	1409.524
261229.352	1404.396
261229.370	1396.337
261229.384	1390.476
261229.402	1384.615
261229.410	1383.150
261229.439	1382.418
261229.445	1383.150
261229.463	1384.615
261229.476	1386.813
261229.492	1389.011
261229.513	1390.476
261229.519	1391.941
261229.550	1392.674
261229.551	1394.139
261229.564	1395.604
261229.600	1396.337
261229.618	1396.337
261229.619	1395.604
261229.634	1394.139
261229.665	1391.941
261229.666	1390.476
261229.689	1388.278
261229.696	1389.011
261229.720	1389.011
261229.727	1389.011
261229.738	1389.744
261229.766	1390.476
261229.793	1391.209
261229.794	1391.941
261229.807	1394.139
261229.818	1398.535
261229.828	1404.396
261229.857	1410.989
261229.883	1414.652
261229.884	1416.850
261229.915	1413.919
261229.916	1408.791
261229.933	1402.198
261229.938	1395.604
261229.963	1390.476
261229.992	1386.813
261229.993	1383.883
261230.023	1383.150
261230.024	1383.883
261230.034	1384.615
261230.058	1386.081
261230.075	1388.278
261230.082	1390.476
261230.103	1391.941
261230.114	1393.407
261230.139	1395.604
261230.154	1396.337
261230.161	1397.070
261230.183	1397.802
261230.194	1397.070
261230.208	1394.872
261230.234	1392.674
261230.259	1391.941
261230.260	1391.209
261230.285	1389.744
261230.286	1389.011
261230.307	1388.278
261230.320	1389.744
261230.329	1390.476
261230.357	1391.941
261230.383	1391.941
261230.384	1393.407
261230.409	1394.872
261230.410	1400.733
261230.433	1407.326
261230.448	1414.652
261230.458	1418.315
261230.488	1417.582
261230.509	1412.454
261230.510	1407.326
261230.520	1399.267
261230.534	1393.407
261230.551	1389.011
261230.575	1385.348
261230.589	1383.883
261230.617	1383.883
261230.628	1383.883
261230.634	1386.081
261230.658	1386.081
261230.659	1389.011
261230.682	1391.209
261230.691	1392.674
261230.724	1394.139
261230.749	1396.337
261230.750	1396.337
261230.756	1397.070
261230.770	1396.337
261230.788	1395.604
261230.802	1395.604
261230.818	1394.139
261230.828	1393.407
261230.855	1392.674
261230.889	1390.476
261230.890	1389.744
261230.904	1388.278
261230.923	1389.011
261230.932	1389.011
261230.938	1390.476
261230.973	1390.476
261230.974	1392.674
261230.990	1394.139
261231.004	1397.802
261231.028	1402.198
261231.033	1409.524
261231.051	1413.919
261231.061	1416.850
261231.099	1414.652
261231.100	1411.722
261231.116	1405.861
261231.132	1400.000
261231.141	1394.872
261231.166	1389.011
261231.173	1385.348
261231.201	1384.615
261231.213	1383.883
261231.228	1385.348
261231.239	1386.081
261231.257	1386.813
261231.266	1388.278
261231.295	1389.744
261231.320	1392.674
261231.321	1394.872
261231.335	1396.337
261231.350	1397.070
261231.366	1397.070
261231.381	1397.070
261231.389	1395.604
261231.414	1394.139
261231.440	1392.674
261231.441	1391.941
261231.458	1390.476
261231.477	1390.476
261231.511	1390.476
261231.513	1391.941
261231.536	1391.941
261231.538	1391.941
261231.564	1392.674
261231.571	1392.674
261231.581	1392.674
261231.609	1394.139
261231.611	1395.604
261231.635	1400.000
261231.652	1405.861
261231.684	1411.722
261231.688	1413.187
261231.703	1412.454
261231.714	1409.524
261231.726	1403.663
261231.746	1397.802
261231.760	1392.674
261231.807	1387.546
261231.808	1384.615
261231.811	1383.150
261231.819	1383.883
261231.829	1385.348
261231.854	1387.546
261231.860	1388.278
261231.879	1391.941
261231.929	1394.139
261231.930	1397.802
261231.935	1399.267
261231.950	1400.733
261231.961	1400.000
261231.976	1398.535
261231.992	1397.070
261232.008	1396.337
261232.036	1394.139
261232.038	1391.941
261232.050	1389.744
261232.072	1389.011
261232.081	1389.011
261232.105	1389.744
261232.119	1390.476
261232.153	1391.941
261232.154	1391.941
261232.179	1391.941
261232.180	1391.941
261232.196	1392.674
261232.210	1393.407
261232.223	1398.535
261232.264	1403.663
261232.265	1409.524
261232.280	1413.919
261232.288	1414.652
261232.313	1414.652
261232.314	1410.256
261232.329	1403.663
261232.351	1396.337
261232.360	1389.744
261232.385	1385.348
261232.386	1382.418
261232.410	1382.418
261232.449	1383.150
261232.450	1386.081
261232.466	1389.011
261232.475	1393.407
261232.513	1396.337
261232.514	1398.535
261232.521	1400.000
261232.534	1400.733
261232.558	1400.000
261232.571	1397.802
261232.584	1396.337
261232.594	1395.604
261232.622	1394.139
261232.637	1393.407
261232.653	1392.674
261232.661	1391.941
261232.689	1391.941
261232.690	1391.209
261232.715	1391.209
261232.745	1391.941
261232.754	1391.941
261232.760	1392.674
261232.777	1392.674
261232.802	1393.407
261232.815	1394.872
261232.816	1399.267
261232.829	1404.396
261232.861	1410.256
261232.875	1413.919
261232.883	1414.652
261232.895	1412.454
261232.920	1405.128
261232.930	1397.070
261232.938	1389.744
261232.973	1383.150
261232.974	1380.952
261232.990	1379.487
261233.005	1380.952
261233.023	1383.883
261233.030	1386.813
261233.051	1391.209
261233.080	1394.872
261233.105	1397.070
261233.106	1399.267
261233.113	1400.000
261233.133	1400.733
261233.150	1400.000
261233.161	1400.000
261233.182	1397.070
261233.191	1393.407
261233.218	1391.941
261233.238	1390.476
261233.256	1390.476
261233.263	1390.476
261233.290	1391.941
261233.299	1392.674
261233.305	1394.139
261233.330	1394.872
261233.331	1394.139
261233.348	1394.139
261233.369	1394.872
261233.384	1397.802
261233.388	1402.198
261233.410	1407.326
261233.435	1410.989
261233.436	1412.454
261233.462	1410.256
261233.488	1405.861
261233.489	1398.535
261233.508	1392.674
261233.522	1387.546
261233.533	1385.348
261233.559	1383.883
261233.560	1384.615
261233.581	1384.615
261233.595	1387.546
261233.620	1390.476
261233.629	1392.674
261233.652	1394.139
261233.660	1397.070
261233.694	1397.802
261233.695	1398.535
261233.704	1397.070
261233.728	1395.604
261233.744	1394.872
261233.755	1394.872
261233.774	1394.139
261233.803	1393.407
261233.804	1391.209
261233.820	1391.209
261233.830	1390.476
261233.852	1391.209
261233.870	1391.209
261233.884	1391.941
261233.919	1392.674
261233.920	1394.139
261233.934	1395.604
261233.935	1398.535
261233.960	1401.465
261233.974	1405.128
261233.998	1408.059
261233.999	1409.524
261234.028	1406.593
261234.029	1402.930
261234.050	1396.337
261234.077	1391.941
261234.098	1387.546
261234.099	1383.883
261234.113	1382.418
261234.138	1381.685
261234.164	1382.418
261234.178	1385.348
261234.179	1389.011
261234.196	1391.941
261234.211	1394.872
261234.226	1396.337
261234.250	1398.535
261234.275	1399.267
261234.290	1399.267
261234.291	1397.802
261234.303	1396.337
261234.320	1396.337
261234.329	1395.604
261234.348	1396.337
261234.363	1396.337
261234.399	1396.337
261234.408	1394.872
261234.410	1394.139
261234.435	1393.407
261234.436	1391.941
261234.461	1392.674
261234.478	1394.139
261234.506	1397.802
261234.508	1402.930
261234.520	1407.326
261234.528	1409.524
261234.553	1408.059
261234.561	1405.128
261234.586	1398.535
261234.593	1393.407
261234.624	1388.278
261234.643	1386.081
261234.650	1384.615
261234.665	1385.348
261234.681	1386.081
261234.692	1389.011
261234.751	1391.941
261234.753	1394.139
261234.771	1395.604
261234.773	1397.070
261234.775	1397.802
261234.786	1399.267
261234.810	1397.802
261234.819	1396.337
261234.829	1394.872
261234.860	1393.407
261234.861	1392.674
261234.878	1391.941
261234.898	1391.941
261234.910	1391.941
261234.935	1391.209
261234.937	1391.941
261234.958	1392.674
261234.984	1394.139
261234.985	1397.802
261235.009	1402.930
261235.021	1407.326
261235.033	1412.454
261235.058	1416.117
261235.066	1416.117
261235.100	1411.722
261235.101	1405.861
261235.119	1398.535
261235.125	1392.674
261235.155	1387.546
261235.164	1386.081
261235.173	1383.883
261235.209	1384.615
261235.210	1386.081
261235.235	1388.278
261235.236	1390.476
261235.254	1394.139
261235.276	1396.337
261235.290	1398.535
261235.296	1398.535
261235.322	1399.267
261235.359	1397.802
261235.360	1397.802
261235.386	1396.337
261235.394	1394.872
261235.395	1393.407
261235.413	1392.674
261235.425	1391.941
261235.454	1391.941
261235.464	1391.209
261235.490	1391.209
261235.491	1391.941
261235.508	1396.337
261235.519	1400.733
261235.530	1408.791
261235.550	1415.385
261235.584	1418.315
261235.585	1417.582
261235.595	1413.919
261235.614	1406.593
261235.638	1399.267
261235.650	1392.674
261235.664	1387.546
261235.693	1384.615
261235.694	1383.150
261235.715	1383.883
261235.724	1386.081
261235.743	1387.546
261235.760	1390.476
261235.774	1394.139
261235.788	1397.802
261235.814	1400.000
261235.823	1400.000
261235.824	1399.267
261235.850	1399.267
261235.864	1399.267
261235.881	1399.267
261235.891	1397.070
261235.918	1395.604
261235.944	1394.872
261235.945	1394.139
261235.966	1394.139
261235.993	1394.139
261235.994	1394.139
261236.015	1397.070
261236.016	1400.733
261236.042	1406.593
261236.061	1412.454
261236.073	1418.315
261236.088	1419.048
261236.104	1416.850
261236.114	1410.989
261236.137	1404.396
261236.165	1396.337
261236.167	1390.476
261236.182	1386.081
261236.193	1383.150
261236.213	1383.150
261236.225	1385.348
261236.242	1386.813
261236.258	1388.278
261236.284	1390.476
261236.285	1394.139
261236.300	1396.337
261236.324	1400.000
261236.325	1400.733
261236.354	1402.198
261236.356	1401.465
261236.380	1400.000
