Timestamp	PPG	2023-07-24 06:37:19.648	fs=64.0
493358.054	1896.703
493358.055	1913.553
493358.079	1905.495
493358.081	1896.703
493358.095	1887.179
493358.113	1887.179
493358.123	1887.179
493358.155	1904.029
493358.157	1900.366
493358.178	1915.018
493358.186	1895.238
493358.212	1893.040
493358.213	1895.238
493358.262	1891.575
493358.263	1884.249
493358.289	1898.168
493358.290	1898.168
493358.315	1909.157
493358.322	1896.703
493358.323	1904.029
493358.354	1901.099
493358.355	1911.355
493358.381	1904.029
493358.415	1907.692
493358.416	1903.297
493358.433	1912.088
493358.438	1898.901
493358.458	1909.157
493358.479	1898.168
493358.504	1904.762
493358.504	1890.843
493358.531	1888.645
493358.539	1893.773
493358.548	1906.960
493358.573	1896.703
493358.579	1904.029
493358.596	1895.238
493358.621	1903.297
493358.648	1901.099
493358.649	1909.890
493358.666	1903.297
493358.675	1906.960
493358.681	1892.308
493358.707	1894.505
493358.741	1890.110
493358.743	1900.366
493358.756	1893.040
493358.770	1906.960
493358.788	1896.703
493358.804	1904.029
493358.818	1895.971
493358.835	1912.821
493358.878	1895.238
493358.878	1906.960
493358.895	1897.436
493358.897	1904.029
493358.929	1905.495
493358.930	1913.553
493358.940	1900.366
493358.950	1910.623
493358.979	1908.425
493358.998	1918.681
493358.999	1902.564
493359.033	1895.238
493359.034	1901.099
493359.049	1915.018
493359.072	1905.495
493359.094	1908.425
493359.095	1904.029
493359.120	1911.355
493359.154	1905.495
493359.155	1901.832
493359.165	1898.901
493359.177	1909.890
493359.210	1898.168
493359.212	1904.762
493359.235	1902.564
493359.237	1910.623
493359.259	1903.297
493359.267	1901.099
493359.292	1893.773
493359.293	1895.971
493359.322	1898.168
493359.349	1913.553
493359.350	1904.762
493359.365	1908.425
493359.379	1898.168
493359.389	1893.040
493359.413	1895.238
493359.421	1907.692
493359.449	1901.832
493359.450	1910.623
493359.477	1904.762
493359.478	1908.425
493359.502	1904.029
493359.541	1896.703
493359.544	1902.564
493359.546	1911.355
493359.574	1909.157
493359.591	1915.018
493359.593	1901.099
493359.618	1899.634
493359.626	1904.762
493359.656	1900.366
493359.665	1898.901
493359.690	1902.564
493359.692	1895.238
493359.718	1895.971
493359.729	1902.564
493359.737	1906.227
493359.764	1901.099
493359.765	1900.366
493359.795	1900.366
493359.822	1914.286
493359.823	1904.762
493359.830	1917.216
493359.845	1901.832
493359.856	1911.355
493359.884	1904.762
493359.885	1912.088
493359.910	1906.227
493359.938	1901.099
493359.939	1898.901
493359.962	1908.425
493359.972	1898.168
493359.998	1904.762
493359.999	1896.703
493360.024	1904.029
493360.050	1901.832
493360.052	1911.355
493360.065	1898.901
493360.090	1908.425
493360.092	1903.297
493360.111	1911.355
493360.136	1898.901
493360.163	1904.762
493360.164	1895.971
493360.196	1906.960
493360.198	1903.297
493360.224	1912.088
493360.225	1906.227
493360.243	1913.553
493360.244	1905.495
493360.270	1912.821
493360.304	1906.227
493360.307	1912.821
493360.317	1900.366
493360.335	1893.773
493360.354	1895.971
493360.368	1908.425
493360.399	1901.832
493360.401	1899.634
493360.418	1893.773
493360.419	1906.960
493360.444	1906.960
493360.470	1907.692
493360.472	1897.436
493360.482	1904.029
493360.512	1895.971
493360.537	1903.297
493360.538	1904.762
493360.548	1912.821
493360.569	1904.762
493360.584	1911.355
493360.594	1904.029
493360.619	1911.355
493360.644	1909.157
493360.665	1915.018
493360.667	1901.099
493360.677	1910.623
493360.684	1904.029
493360.709	1917.216
493360.729	1911.355
493360.754	1915.751
493360.756	1911.355
493360.773	1904.029
493360.787	1896.703
493360.813	1904.029
493360.838	1899.634
493360.839	1909.157
493360.864	1907.692
493360.865	1891.575
493360.894	1890.110
493360.895	1899.634
493360.912	1888.645
493360.919	1900.366
493360.944	1893.773
493360.962	1902.564
493360.995	1900.366
493360.997	1904.762
493361.003	1901.832
493361.018	1906.227
493361.048	1901.832
493361.049	1906.227
493361.074	1903.297
493361.079	1911.355
493361.108	1904.029
493361.109	1911.355
493361.135	1904.762
493361.149	1912.821
493361.167	1906.227
493361.176	1912.821
493361.189	1899.634
493361.214	1904.762
493361.247	1902.564
493361.248	1910.623
493361.258	1904.762
493361.268	1912.821
493361.292	1905.495
493361.303	1917.216
493361.315	1911.355
493361.344	1915.751
493361.346	1912.088
493361.367	1912.088
493361.381	1905.495
493361.387	1912.088
493361.412	1905.495
493361.428	1908.425
493361.453	1908.425
493361.487	1915.018
493361.488	1906.960
493361.513	1887.179
493361.514	1887.179
493361.528	1903.297
493361.542	1906.227
493361.549	1913.553
493361.578	1910.623
493361.603	1910.623
493361.604	1913.553
493361.619	1917.216
493361.620	1912.821
493361.649	1916.484
493361.664	1917.949
493361.689	1914.286
493361.690	1912.821
493361.715	1912.088
493361.731	1911.355
493361.738	1915.751
493361.752	1900.366
493361.775	1906.227
493361.777	1913.553
493361.810	1917.216
493361.812	1919.414
493361.836	1915.018
493361.850	1917.949
493361.877	1901.099
493361.889	1910.623
493361.890	1909.890
493361.909	1915.751
493361.934	1912.088
493361.949	1921.612
493361.952	1920.146
493361.976	1921.612
493361.982	1915.751
493362.017	1923.810
493362.022	1920.146
493362.078	1925.275
493362.078	1923.077
493362.102	1909.890
493362.103	1915.018
493362.123	1918.681
493362.125	1919.414
493362.125	1926.007
493362.160	1911.355
493362.162	1915.751
493362.193	1910.623
493362.194	1921.612
493362.204	1920.146
493362.223	1918.681
493362.235	1907.692
493362.263	1912.821
493362.265	1917.216
493362.290	1912.821
493362.308	1889.377
493362.316	1904.029
493362.327	1900.366
493362.352	1917.216
493362.353	1917.216
493362.379	1928.938
493362.409	1912.821
493362.410	1926.740
493362.431	1910.623
493362.447	1915.751
493362.448	1916.484
493362.473	1929.670
493362.483	1912.821
493362.522	1920.879
493362.523	1915.751
493362.556	1927.473
493362.557	1918.681
493362.574	1919.414
493362.575	1915.018
493362.593	1916.484
493362.643	1918.681
493362.644	1918.681
493362.663	1892.308
493362.664	1890.110
493362.677	1900.366
493362.687	1910.623
493362.712	1915.018
493362.740	1927.473
493362.742	1917.949
493362.767	1925.275
493362.768	1917.216
493362.792	1914.286
493362.803	1911.355
493362.819	1910.623
493362.834	1910.623
493362.845	1921.612
493362.870	1915.018
493362.897	1923.077
493362.898	1916.484
493362.908	1925.275
493362.932	1917.949
493362.937	1918.681
493362.962	1917.949
493362.969	1915.018
493362.998	1917.216
493363.014	1925.275
493363.024	1895.238
493363.052	1906.960
493363.052	1890.843
493363.072	1901.099
493363.082	1887.179
493363.117	1892.308
493363.117	1905.495
493363.139	1919.414
493363.149	1913.553
493363.167	1916.484
493363.176	1917.949
493363.182	1903.297
493363.207	1912.088
493363.234	1894.505
493363.235	1906.227
493363.260	1920.146
493363.275	1918.681
493363.277	1914.286
493363.300	1912.088
493363.318	1923.077
493363.348	1915.018
493363.348	1917.216
493363.374	1901.832
493363.407	1915.751
493363.408	1912.088
493363.417	1927.473
493363.440	1912.088
493363.442	1915.018
493363.491	1905.495
493363.493	1912.088
493363.494	1909.157
493363.509	1920.879
493363.524	1914.286
493363.538	1916.484
493363.552	1918.681
493363.581	1929.670
493363.605	1913.553
493363.607	1926.740
493363.612	1912.821
493363.629	1916.484
493363.642	1906.227
493363.664	1908.425
493363.678	1906.960
493363.703	1920.879
493363.704	1909.157
493363.731	1924.542
493363.737	1915.751
493363.757	1913.553
493363.767	1904.762
493363.792	1907.692
493363.793	1906.960
493363.827	1912.088
493363.844	1900.366
493363.845	1906.227
493363.864	1908.425
493363.881	1913.553
493363.890	1904.762
493363.913	1918.681
493363.948	1907.692
493363.948	1913.553
493363.963	1900.366
493363.973	1916.484
493364.003	1902.564
493364.029	1906.227
493364.034	1901.832
493364.062	1917.949
493364.063	1918.681
493364.083	1926.007
493364.084	1906.227
493364.096	1912.088
493364.118	1910.623
493364.136	1922.344
493364.147	1904.029
493364.179	1919.414
493364.180	1906.960
493364.191	1912.821
493364.214	1915.018
493364.220	1917.216
493364.240	1890.843
493364.250	1916.484
493364.275	1917.949
493364.307	1928.938
493364.308	1911.355
493364.319	1926.007
493364.337	1906.960
493364.350	1909.157
493364.372	1902.564
493364.373	1910.623
493364.387	1914.286
493364.416	1927.473
493364.430	1911.355
493364.440	1915.018
493364.449	1910.623
493364.497	1911.355
493364.498	1899.634
493364.524	1920.146
493364.525	1907.692
493364.549	1920.146
493364.549	1909.157
493364.573	1914.286
493364.594	1915.018
493364.610	1916.484
493364.613	1906.960
493364.623	1907.692
493364.668	1901.832
493364.694	1909.157
493364.705	1890.843
493364.708	1907.692
493364.709	1898.168
493364.731	1906.960
493364.737	1900.366
493364.771	1916.484
493364.772	1915.751
493364.789	1916.484
493364.793	1896.703
493364.820	1901.099
493364.834	1909.157
493364.848	1915.018
493364.873	1897.436
493364.874	1900.366
493364.899	1898.901
493364.919	1927.473
493364.922	1913.553
493364.944	1901.832
493364.945	1894.505
493364.995	1914.286
493364.997	1896.703
493365.024	1899.634
493365.038	1885.714
493365.039	1912.821
493365.052	1911.355
493365.073	1912.088
493365.082	1898.901
493365.097	1893.773
493365.124	1905.495
493365.125	1925.275
493365.147	1915.018
493365.162	1914.286
493365.177	1906.227
493365.185	1933.333
493365.205	1927.473
493365.256	1909.157
493365.257	1887.912
493365.264	1916.484
493365.265	1923.810
493365.297	1920.879
493365.298	1901.099
493365.310	1915.018
493365.336	1923.810
493365.360	1925.275
493365.362	1905.495
493365.378	1904.762
493365.395	1907.692
493365.413	1915.018
493365.423	1898.901
493365.453	1904.029
493365.473	1890.110
493365.474	1905.495
493365.497	1906.227
493365.516	1922.344
493365.522	1912.088
493365.543	1920.146
493365.549	1912.821
493365.577	1923.810
493365.601	1899.634
493365.624	1919.414
493365.625	1910.623
493365.634	1922.344
493365.646	1917.949
493365.672	1923.077
493365.673	1916.484
493365.683	1912.088
493365.713	1904.029
493365.735	1918.681
493365.737	1907.692
493365.758	1912.821
493365.770	1902.564
493365.786	1910.623
493365.797	1904.029
493365.824	1922.344
493365.848	1909.890
493365.849	1924.542
493365.867	1906.960
493365.881	1914.286
493365.889	1893.773
493365.923	1906.227
493365.953	1888.645
493365.953	1902.564
493365.974	1905.495
493365.975	1921.612
493366.002	1909.157
493366.010	1921.612
493366.017	1926.007
493366.038	1922.344
493366.066	1915.018
493366.067	1917.949
493366.088	1903.297
493366.100	1910.623
493366.115	1904.029
493366.134	1922.344
493366.142	1906.227
493366.167	1913.553
493366.193	1911.355
493366.194	1925.275
493366.204	1917.216
493366.227	1918.681
493366.240	1907.692
493366.258	1908.425
493366.267	1896.703
493366.306	1908.425
493366.307	1909.890
493366.324	1921.612
493366.325	1892.308
493366.374	1906.960
493366.375	1891.575
493366.377	1902.564
493366.388	1898.168
493366.415	1903.297
493366.434	1907.692
493366.435	1913.553
493366.462	1912.088
493366.474	1909.890
493366.498	1913.553
493366.517	1917.949
493366.519	1904.029
493366.558	1921.612
493366.579	1918.681
493366.579	1907.692
493366.594	1915.018
493366.595	1923.810
493366.614	1915.018
493366.648	1926.007
493366.649	1910.623
493366.674	1924.542
493366.685	1920.879
493366.688	1912.821
493366.713	1904.762
493366.724	1923.810
493366.738	1921.612
493366.748	1903.297
493366.772	1906.227
493366.797	1923.810
493366.798	1927.473
493366.817	1917.949
493366.842	1906.227
493366.843	1912.821
493366.868	1901.832
493366.893	1911.355
493366.918	1909.157
493366.919	1890.843
493366.932	1906.227
493366.939	1913.553
493366.950	1899.634
493366.970	1918.681
493366.995	1903.297
493367.022	1911.355
493367.040	1894.505
493367.043	1901.832
493367.053	1905.495
493367.070	1906.960
493367.084	1909.157
493367.100	1914.286
493367.141	1909.157
493367.144	1924.542
493367.157	1910.623
493367.163	1915.018
493367.177	1917.216
493367.187	1918.681
493367.212	1914.286
493367.239	1926.740
493367.240	1918.681
493367.278	1928.938
493367.284	1923.810
493367.285	1927.473
493367.303	1907.692
493367.313	1919.414
493367.338	1918.681
493367.343	1914.286
493367.368	1917.949
493367.386	1917.216
493367.387	1923.077
493367.412	1925.275
493367.427	1922.344
493367.437	1916.484
493367.462	1906.960
493367.487	1912.088
493367.504	1920.879
493367.529	1920.146
493367.536	1908.425
493367.543	1912.821
493367.552	1905.495
493367.567	1907.692
493367.594	1902.564
493367.627	1920.879
493367.630	1918.681
493367.640	1929.670
493367.642	1920.146
493367.667	1920.146
493367.672	1918.681
493367.685	1912.088
493367.713	1904.762
493367.713	1922.344
493367.739	1916.484
493367.762	1924.542
493367.771	1910.623
493367.784	1914.286
493367.798	1901.099
493367.824	1910.623
493367.850	1897.436
493367.852	1903.297
493367.878	1906.227
493367.903	1912.821
493367.904	1911.355
493367.909	1921.612
493367.918	1908.425
493367.944	1913.553
493367.971	1920.879
493367.972	1920.146
493367.979	1915.018
493368.009	1917.216
493368.019	1911.355
493368.029	1882.051
493368.054	1890.843
493368.055	1915.751
493368.081	1917.949
493368.113	1913.553
493368.124	1909.157
493368.131	1870.330
493368.153	1874.725
493368.162	1892.308
493368.190	1889.377
493368.192	1915.018
493368.207	1911.355
493368.221	1875.458
493368.244	1891.575
493368.245	1912.088
493368.272	1915.018
493368.279	1926.740
493368.305	1917.216
493368.325	1913.553
493368.326	1912.088
493368.355	1916.484
493368.357	1912.821
493368.378	1910.623
493368.400	1904.029
493368.425	1922.344
493368.427	1920.879
493368.449	1886.447
493368.462	1898.901
493368.492	1909.157
493368.493	1909.890
493368.515	1909.890
493368.540	1897.436
493368.542	1908.425
493368.567	1896.703
493368.568	1918.681
493368.582	1913.553
493368.593	1881.319
493368.618	1896.703
493368.619	1914.286
493368.654	1915.751
493368.679	1927.473
493368.681	1922.344
493368.685	1915.751
493368.711	1917.216
493368.713	1928.205
493368.737	1918.681
493368.758	1913.553
493368.784	1910.623
493368.786	1925.275
493368.808	1917.216
493368.818	1928.938
493368.843	1917.949
493368.844	1918.681
493368.870	1892.308
493368.881	1905.495
493368.904	1906.960
493368.927	1912.821
493368.928	1910.623
493368.945	1915.018
493368.953	1916.484
493368.975	1912.088
493368.987	1910.623
493369.014	1909.890
493369.038	1914.286
493369.044	1916.484
493369.045	1916.484
493369.069	1917.949
493369.079	1917.949
493369.103	1918.681
493369.133	1917.949
493369.134	1923.077
493369.160	1916.484
493369.187	1928.205
493369.193	1896.703
493369.194	1907.692
493369.205	1912.088
493369.232	1911.355
493369.232	1915.018
493369.258	1927.473
493369.281	1918.681
493369.282	1924.542
493369.293	1916.484
493369.319	1912.821
493369.333	1910.623
493369.344	1909.890
493369.378	1891.575
493369.384	1905.495
493369.399	1911.355
493369.408	1921.612
493369.424	1914.286
493369.438	1915.751
493369.453	1912.088
493369.483	1925.275
493369.484	1917.216
493369.519	1928.205
493369.520	1923.077
493369.547	1881.319
493369.558	1884.982
493369.569	1898.168
493369.582	1897.436
493369.610	1873.993
493369.635	1893.040
493369.637	1916.484
493369.643	1916.484
493369.663	1900.366
493369.674	1899.634
493369.684	1908.425
493369.709	1908.425
493369.748	1913.553
493369.749	1911.355
493369.774	1920.146
493369.775	1915.018
493369.798	1927.473
493369.799	1921.612
493369.818	1920.146
493369.847	1907.692
493369.868	1909.157
493369.873	1909.890
493369.880	1920.879
493369.890	1907.692
493369.909	1909.157
493369.922	1897.436
493369.942	1902.564
493369.968	1898.901
493369.969	1915.751
493369.988	1915.751
493370.000	1878.388
493370.018	1889.377
493370.032	1900.366
493370.048	1888.645
493370.077	1900.366
493370.078	1904.762
493370.106	1917.949
493370.112	1918.681
493370.133	1917.949
493370.147	1918.681
493370.157	1924.542
493370.176	1904.029
493370.201	1879.121
493370.226	1895.238
493370.227	1906.227
493370.239	1907.692
493370.257	1908.425
493370.271	1908.425
493370.278	1908.425
493370.294	1896.703
493370.322	1909.890
493370.341	1907.692
493370.342	1909.157
493370.367	1897.436
493370.379	1909.157
493370.408	1898.168
493370.409	1909.890
493370.434	1908.425
493370.435	1919.414
493370.462	1912.821
493370.484	1916.484
493370.485	1912.088
493370.502	1882.051
493370.526	1884.249
493370.527	1906.227
493370.556	1907.692
493370.582	1909.157
493370.587	1907.692
493370.588	1874.725
493370.614	1892.308
493370.623	1900.366
493370.648	1893.773
493370.683	1890.110
493370.684	1898.901
493370.702	1909.157
493370.702	1906.960
493370.727	1912.088
493370.741	1893.040
493370.747	1901.832
493370.778	1887.179
493370.805	1903.297
493370.807	1905.495
493370.820	1916.484
493370.838	1911.355
493370.852	1910.623
493370.853	1909.157
493370.878	1909.157
493370.904	1887.179
493370.930	1904.029
493370.931	1901.099
493370.949	1909.890
493370.962	1891.575
493370.971	1901.099
493370.981	1893.773
493371.023	1906.960
493371.024	1896.703
493371.049	1906.960
493371.050	1902.564
493371.076	1871.795
493371.101	1884.982
493371.102	1901.099
493371.115	1898.168
493371.139	1907.692
493371.141	1902.564
493371.166	1906.227
493371.173	1905.495
493371.183	1912.088
493371.208	1904.762
493371.227	1906.960
493371.237	1896.703
493371.265	1907.692
493371.265	1897.436
493371.287	1907.692
493371.294	1906.227
493371.316	1908.425
493371.326	1891.575
493371.349	1904.762
493371.383	1895.238
493371.384	1907.692
493371.407	1895.971
493371.408	1903.297
493371.439	1884.982
493371.440	1898.168
493371.451	1885.714
493371.476	1896.703
493371.501	1887.179
493371.536	1898.901
493371.536	1893.040
493371.539	1904.762
493371.553	1895.238
493371.563	1907.692
493371.578	1890.843
493371.594	1865.934
493371.621	1876.190
493371.622	1893.040
493371.646	1884.982
493371.654	1898.168
493371.683	1896.703
493371.684	1907.692
493371.708	1896.703
493371.739	1908.425
493371.740	1891.575
493371.758	1904.762
493371.777	1895.238
493371.789	1906.960
493371.791	1890.843
493371.816	1904.762
493371.856	1894.505
493371.857	1907.692
493371.875	1895.238
493371.877	1903.297
493371.891	1893.040
493371.915	1901.099
493371.927	1887.912
493371.944	1899.634
493371.980	1886.447
493371.981	1902.564
493371.990	1889.377
493372.009	1899.634
493372.023	1882.784
493372.029	1896.703
493372.052	1885.714
493372.063	1897.436
493372.090	1885.714
493372.090	1901.832
493372.108	1894.505
493372.138	1866.667
493372.147	1872.527
493372.173	1884.249
493372.174	1884.249
493372.183	1895.971
493372.208	1891.575
493372.227	1904.762
493372.241	1884.982
493372.248	1897.436
493372.272	1891.575
493372.285	1904.762
493372.293	1895.238
493372.324	1907.692
493372.354	1895.238
493372.356	1907.692
493372.381	1901.099
493372.382	1905.495
493372.398	1900.366
493372.412	1909.890
493372.446	1893.040
493372.470	1901.832
493372.472	1889.377
493372.482	1899.634
493372.496	1886.447
493372.508	1907.692
493372.518	1895.238
493372.532	1906.227
493372.561	1890.110
493372.562	1904.029
493372.588	1895.238
493372.594	1890.843
493372.621	1878.388
493372.631	1898.901
493372.644	1882.051
493372.671	1871.795
493372.696	1878.388
493372.697	1898.168
493372.724	1896.703
493372.726	1907.692
493372.737	1896.703
493372.749	1901.099
493372.766	1893.773
493372.792	1905.495
493372.817	1890.843
493372.822	1904.029
493372.836	1888.645
493372.845	1899.634
493372.874	1887.179
493372.888	1898.901
493372.889	1881.319
493372.918	1884.982
493372.938	1879.854
493372.939	1883.516
493372.949	1873.993
493372.974	1897.436
493372.993	1890.843
493373.006	1904.762
493373.037	1889.377
493373.038	1909.157
493373.059	1890.110
493373.069	1904.762
493373.078	1894.505
493373.111	1906.960
493373.115	1885.714
493373.127	1903.297
493373.161	1889.377
493373.162	1904.029
493373.181	1898.901
493373.181	1904.762
493373.208	1894.505
493373.218	1894.505
493373.237	1879.854
493373.265	1890.110
493373.267	1887.179
493373.292	1903.297
493373.293	1893.040
493373.314	1905.495
493373.328	1888.645
493373.352	1899.634
493373.353	1897.436
493373.387	1903.297
493373.388	1898.901
493373.419	1909.157
493373.431	1892.308
493373.440	1900.366
493373.454	1882.784
493373.472	1896.703
493373.485	1886.447
493373.512	1897.436
493373.534	1881.319
493373.536	1900.366
493373.552	1882.784
493373.563	1901.099
493373.582	1883.516
493373.611	1868.865
493373.612	1882.784
493373.637	1895.238
493373.663	1890.843
493373.664	1893.773
493373.688	1890.110
493373.689	1904.029
493373.704	1884.249
493373.731	1901.832
493373.732	1887.179
493373.764	1902.564
493373.765	1893.040
493373.787	1905.495
493373.793	1889.377
493373.814	1899.634
493373.839	1886.447
493373.869	1902.564
493373.871	1887.912
493373.883	1908.425
493373.888	1895.971
493373.912	1903.297
493373.917	1898.901
493373.942	1904.762
493373.967	1894.505
493373.968	1906.960
493374.009	1885.714
493374.027	1895.971
493374.028	1884.982
493374.043	1902.564
493374.046	1888.645
493374.072	1903.297
493374.097	1893.040
493374.128	1901.099
493374.129	1887.179
493374.133	1898.901
493374.143	1891.575
493374.153	1893.773
493374.178	1894.505
493374.182	1911.355
493374.207	1902.564
493374.225	1871.795
493374.252	1873.993
493374.253	1893.040
493374.278	1882.784
493374.290	1901.099
493374.293	1882.784
493374.319	1896.703
493374.354	1891.575
493374.356	1904.762
493374.364	1890.110
493374.379	1904.762
493374.387	1899.634
493374.417	1904.029
493374.431	1890.110
493374.457	1900.366
493374.484	1892.308
493374.485	1868.132
493374.489	1877.656
493374.511	1898.168
493374.518	1887.179
493374.532	1887.179
493374.549	1876.923
493374.575	1893.773
493374.576	1890.110
493374.602	1904.762
493374.612	1889.377
493374.622	1892.308
493374.646	1890.110
493374.655	1899.634
493374.687	1887.912
493374.688	1904.029
493374.712	1895.238
493374.726	1902.564
493374.734	1887.912
493374.762	1869.597
493374.763	1873.993
493374.788	1880.586
493374.789	1882.784
493374.815	1905.495
493374.840	1890.110
493374.842	1904.029
493374.867	1895.238
493374.893	1906.960
493374.894	1895.238
493374.919	1878.388
493374.946	1883.516
493374.947	1901.832
493374.968	1888.645
493374.974	1899.634
493374.999	1886.447
493375.005	1898.168
493375.022	1881.319
493375.048	1895.238
493375.063	1884.249
493375.070	1897.436
493375.078	1886.447
493375.093	1902.564
493375.112	1888.645
493375.120	1903.297
493375.145	1888.645
493375.170	1899.634
493375.172	1887.179
493375.195	1902.564
493375.209	1894.505
493375.218	1905.495
493375.246	1894.505
493375.255	1902.564
493375.281	1893.040
493375.306	1901.099
493375.307	1893.773
493375.313	1905.495
493375.325	1889.377
493375.350	1903.297
493375.367	1889.377
493375.377	1904.029
493375.410	1895.238
493375.412	1906.960
493375.433	1896.703
493375.438	1897.436
493375.463	1890.843
493375.469	1905.495
493375.491	1885.714
493375.517	1898.168
493375.542	1886.447
493375.543	1901.832
493375.569	1887.912
493375.569	1898.168
493375.587	1885.714
493375.607	1902.564
493375.612	1888.645
493375.637	1893.040
493375.638	1890.110
493375.661	1904.029
493375.677	1889.377
493375.685	1904.029
493375.704	1884.249
493375.714	1886.447
493375.742	1887.179
493375.763	1898.901
493375.764	1892.308
493375.790	1890.110
493375.792	1882.051
493375.819	1884.982
493375.834	1879.854
493375.848	1889.377
493375.876	1882.051
493375.895	1900.366
493375.895	1882.784
493375.910	1890.110
493375.921	1882.784
493375.949	1884.982
493375.950	1890.843
493375.978	1899.634
493376.003	1897.436
493376.009	1906.960
493376.018	1891.575
493376.027	1905.495
493376.052	1890.110
493376.073	1900.366
493376.080	1887.179
493376.109	1896.703
493376.110	1892.308
493376.132	1905.495
493376.142	1890.110
493376.183	1888.645
493376.187	1882.051
493376.187	1901.099
493376.212	1892.308
493376.213	1905.495
493376.243	1900.366
493376.259	1909.890
493376.264	1898.168
493376.278	1896.703
493376.296	1886.447
493376.320	1890.843
493376.346	1887.912
493376.347	1903.297
493376.372	1888.645
493376.378	1904.029
493376.388	1889.377
493376.412	1888.645
493376.433	1892.308
493376.439	1901.099
493376.465	1892.308
493376.466	1905.495
493376.492	1890.843
493376.514	1900.366
493376.516	1892.308
493376.537	1901.099
493376.547	1892.308
493376.572	1893.773
493376.596	1884.982
493376.600	1897.436
493376.623	1890.843
493376.634	1888.645
493376.641	1882.784
493376.692	1889.377
493376.693	1887.179
493376.693	1898.901
493376.718	1891.575
493376.726	1900.366
493376.750	1892.308
493376.757	1901.099
493376.768	1893.040
493376.782	1906.227
493376.807	1895.238
493376.832	1911.355
493376.833	1903.297
493376.861	1888.645
493376.862	1897.436
493376.885	1907.692
493376.887	1901.099
493376.917	1893.773
493376.918	1895.238
493376.943	1907.692
493376.959	1896.703
493376.974	1907.692
493376.982	1901.832
493376.995	1893.773
493377.018	1894.505
493377.042	1895.238
493377.043	1890.110
493377.068	1900.366
493377.084	1902.564
493377.099	1910.623
493377.109	1897.436
493377.132	1890.843
493377.142	1888.645
493377.178	1891.575
493377.179	1889.377
493377.201	1899.634
493377.202	1898.901
493377.227	1901.832
493377.233	1893.773
493377.252	1905.495
493377.279	1899.634
493377.308	1904.762
493377.309	1895.971
493377.323	1906.227
493377.338	1895.238
493377.344	1907.692
493377.368	1896.703
493377.375	1903.297
493377.400	1894.505
493377.427	1901.099
493377.428	1893.773
493377.458	1895.971
493377.459	1897.436
493377.482	1907.692
493377.490	1902.564
493377.522	1909.157
493377.523	1897.436
493377.548	1903.297
493377.549	1899.634
493377.557	1909.157
493377.582	1903.297
493377.591	1889.377
493377.618	1892.308
493377.619	1909.890
493377.649	1908.425
493377.650	1913.553
493377.682	1909.890
493377.683	1913.553
493377.704	1905.495
493377.728	1900.366
493377.739	1893.040
493377.767	1900.366
493377.781	1893.040
493377.789	1899.634
493377.794	1893.040
493377.818	1895.238
493377.843	1896.703
493377.844	1907.692
493377.874	1896.703
493377.875	1907.692
493377.901	1901.099
493377.909	1909.890
493377.922	1898.168
493377.947	1907.692
493377.963	1902.564
493377.972	1910.623
493377.997	1897.436
493378.018	1907.692
493378.019	1901.099
493378.039	1888.645
493378.053	1887.179
493378.059	1897.436
493378.114	1887.179
493378.116	1893.040
493378.141	1888.645
493378.148	1904.029
493378.149	1890.110
493378.167	1898.901
493378.172	1896.703
493378.187	1901.832
493378.203	1903.297
493378.233	1910.623
493378.234	1898.168
493378.259	1907.692
493378.265	1901.099
493378.293	1893.040
493378.294	1894.505
493378.323	1906.227
493378.350	1905.495
493378.351	1907.692
493378.369	1900.366
493378.379	1904.762
493378.388	1900.366
493378.414	1904.029
493378.428	1899.634
493378.448	1904.762
493378.476	1895.238
493378.496	1895.971
493378.497	1891.575
493378.508	1905.495
493378.517	1895.238
493378.542	1906.227
493378.543	1895.971
493378.568	1902.564
493378.594	1904.029
493378.617	1906.227
493378.618	1896.703
493378.638	1907.692
493378.639	1901.099
493378.664	1909.890
493378.672	1897.436
493378.701	1891.575
493378.707	1898.901
493378.732	1896.703
493378.763	1901.099
493378.764	1892.308
493378.774	1889.377
493378.775	1903.297
493378.801	1894.505
493378.828	1889.377
493378.846	1893.040
493378.847	1900.366
493378.857	1888.645
493378.878	1891.575
493378.888	1888.645
493378.907	1902.564
493378.944	1894.505
493378.945	1905.495
493378.971	1895.971
493378.973	1902.564
493378.989	1899.634
493379.007	1897.436
493379.021	1892.308
493379.029	1878.388
493379.079	1887.179
493379.081	1874.725
493379.082	1881.319
493379.102	1879.121
493379.114	1892.308
493379.123	1899.634
493379.148	1897.436
493379.149	1907.692
493379.179	1901.832
493379.181	1909.157
493379.206	1902.564
493379.215	1909.157
493379.234	1903.297
493379.259	1906.227
493379.267	1901.099
493379.294	1904.762
493379.295	1905.495
493379.322	1906.960
493379.323	1906.227
493379.347	1907.692
493379.373	1901.099
493379.374	1914.286
493379.392	1909.157
493379.419	1912.821
493379.431	1905.495
493379.451	1907.692
493379.461	1906.227
493379.473	1907.692
493379.493	1906.227
493379.494	1906.960
493379.524	1906.960
493379.525	1907.692
493379.551	1907.692
493379.562	1896.703
493379.582	1902.564
493379.597	1898.168
493379.612	1891.575
493379.623	1889.377
493379.648	1893.040
493379.649	1905.495
493379.673	1905.495
493379.689	1907.692
493379.707	1902.564
493379.731	1898.168
493379.732	1904.029
493379.767	1906.227
493379.768	1911.355
493379.797	1904.029
493379.798	1911.355
493379.821	1914.286
493379.837	1910.623
493379.847	1909.890
493379.862	1897.436
493379.888	1907.692
493379.912	1908.425
493379.913	1885.714
493379.922	1906.960
493379.947	1912.088
493379.959	1915.751
493379.971	1916.484
493380.013	1912.088
493380.046	1919.414
493380.047	1914.286
493380.062	1915.751
493380.064	1917.949
493380.066	1916.484
493380.081	1895.971
493380.089	1907.692
493380.117	1912.088
493380.147	1909.890
493380.148	1924.542
493380.168	1919.414
493380.169	1914.286
493380.188	1910.623
493380.212	1913.553
493380.237	1888.645
493380.238	1903.297
493380.264	1898.168
493380.282	1904.029
493380.283	1906.227
493380.304	1912.088
493380.319	1914.286
493380.334	1911.355
493380.361	1913.553
493380.383	1926.007
493380.384	1915.751
493380.386	1923.077
493380.407	1914.286
493380.427	1920.879
493380.442	1917.949
493380.451	1897.436
493380.481	1902.564
493380.482	1917.216
493380.507	1912.088
493380.522	1915.018
493380.537	1915.751
493380.548	1912.821
493380.572	1909.890
493380.604	1912.821
493380.612	1914.286
493380.613	1910.623
493380.652	1898.168
493380.653	1904.029
493380.669	1887.912
493380.694	1899.634
493380.696	1904.029
493380.721	1906.960
493380.722	1906.227
493380.736	1900.366
493380.748	1904.029
493380.767	1911.355
493380.777	1914.286
493380.792	1926.007
493380.823	1920.879
493380.849	1926.007
493380.869	1915.751
493380.871	1923.810
493380.877	1914.286
493380.901	1911.355
493380.911	1913.553
493380.951	1926.007
493380.951	1917.216
493380.977	1928.205
493380.984	1921.612
493380.998	1926.007
493381.015	1917.216
493381.036	1916.484
493381.037	1890.843
493381.069	1900.366
493381.071	1886.447
493381.092	1909.157
493381.107	1907.692
493381.113	1912.821
493381.127	1903.297
493381.146	1909.890
493381.161	1908.425
493381.186	1923.810
493381.187	1914.286
493381.207	1923.077
493381.217	1907.692
493381.237	1912.088
493381.251	1910.623
493381.268	1913.553
493381.293	1909.890
493381.321	1920.879
493381.322	1917.949
493381.348	1924.542
493381.356	1920.146
493381.366	1917.949
493381.381	1912.821
493381.387	1922.344
493381.418	1918.681
493381.444	1925.275
493381.462	1893.040
493381.474	1901.832
493381.475	1909.890
493381.486	1909.157
493381.496	1913.553
493381.519	1926.007
493381.544	1909.890
493381.546	1924.542
493381.566	1913.553
493381.578	1904.029
493381.588	1900.366
493381.613	1919.414
493381.644	1906.227
493381.646	1908.425
493381.671	1901.099
493381.692	1916.484
493381.693	1910.623
493381.709	1921.612
493381.716	1907.692
493381.741	1912.088
493381.742	1904.029
493381.772	1921.612
493381.795	1912.821
493381.806	1922.344
493381.821	1903.297
493381.822	1910.623
493381.846	1903.297
493381.858	1911.355
493381.887	1891.575
493381.909	1901.099
493381.934	1887.179
493381.935	1891.575
493381.961	1888.645
493381.962	1909.890
493381.971	1897.436
493381.983	1908.425
493382.011	1907.692
493382.036	1919.414
493382.037	1901.832
493382.048	1910.623
493382.067	1909.157
493382.081	1909.157
493382.094	1908.425
493382.127	1909.157
493382.128	1896.703
493382.147	1890.843
493382.161	1893.040
493382.174	1901.099
493382.183	1904.029
493382.208	1921.612
493382.219	1902.564
493382.249	1904.762
493382.271	1894.505
493382.272	1901.832
493382.286	1893.773
493382.308	1905.495
493382.322	1910.623
493382.323	1907.692
493382.357	1913.553
493382.382	1926.007
493382.383	1905.495
493382.386	1918.681
493382.419	1906.227
493382.421	1922.344
493382.439	1904.029
493382.451	1910.623
493382.483	1914.286
493382.484	1922.344
493382.501	1904.029
493382.519	1909.890
493382.537	1898.168
493382.545	1902.564
493382.596	1898.901
493382.597	1909.157
493382.622	1886.447
493382.623	1887.179
493382.646	1891.575
493382.647	1904.762
493382.654	1895.238
493382.678	1906.960
493382.679	1896.703
493382.704	1906.960
493382.731	1901.099
493382.732	1909.157
493382.757	1897.436
493382.768	1906.960
493382.778	1912.088
493382.803	1909.890
493382.813	1898.168
493382.869	1906.960
493382.871	1885.714
493382.873	1901.099
493382.874	1898.168
493382.891	1902.564
493382.914	1905.495
493382.928	1921.612
493382.953	1919.414
493382.978	1928.205
493382.979	1910.623
493382.993	1924.542
493382.998	1904.762
493383.023	1911.355
493383.029	1898.901
493383.052	1904.029
493383.083	1898.901
493383.084	1915.018
493383.099	1900.366
493383.114	1915.751
493383.131	1904.762
493383.141	1904.762
493383.169	1897.436
493383.171	1903.297
493383.203	1898.168
493383.228	1904.029
493383.229	1889.377
493383.254	1902.564
493383.256	1893.773
493383.266	1912.821
493383.291	1903.297
493383.334	1910.623
493383.336	1901.832
493383.342	1875.458
493383.343	1881.319
493383.366	1895.238
493383.379	1901.832
493383.387	1914.286
493383.412	1911.355
493383.452	1920.879
493383.458	1918.681
493383.459	1924.542
493383.469	1909.157
493383.488	1912.821
493383.498	1902.564
493383.522	1910.623
493383.552	1902.564
493383.553	1909.890
493383.569	1897.436
493383.586	1901.832
493383.601	1887.912
493383.616	1901.832
493383.622	1892.308
493383.646	1900.366
493383.671	1893.040
493383.672	1912.821
493383.692	1903.297
493383.704	1917.216
493383.732	1906.960
493383.733	1907.692
493383.758	1906.960
493383.783	1912.088
493383.784	1907.692
493383.811	1902.564
493383.812	1898.901
493383.859	1909.157
493383.861	1906.227
493383.871	1918.681
493383.882	1911.355
493383.907	1909.157
493383.908	1907.692
493383.929	1912.821
493383.946	1904.762
493383.968	1911.355
493383.974	1887.912
493383.991	1896.703
493383.999	1880.586
493384.024	1895.238
493384.026	1899.634
493384.051	1918.681
493384.066	1906.227
493384.081	1905.495
493384.092	1904.762
493384.116	1906.227
493384.144	1906.227
493384.146	1921.612
493384.156	1908.425
493384.182	1908.425
493384.183	1912.088
493384.208	1925.275
493384.228	1920.146
493384.257	1918.681
493384.258	1917.216
493384.277	1922.344
493384.288	1914.286
493384.300	1920.146
493384.326	1906.960
493384.332	1922.344
493384.357	1908.425
493384.384	1912.821
493384.385	1893.040
493384.386	1900.366
493384.407	1907.692
493384.436	1912.088
493384.437	1913.553
493384.467	1909.890
493384.468	1913.553
493384.497	1909.890
493384.498	1909.157
493384.523	1923.810
493384.548	1920.146
493384.549	1925.275
493384.557	1920.879
493384.582	1928.938
493384.617	1911.355
493384.618	1909.157
493384.629	1908.425
493384.646	1907.692
493384.661	1912.821
493384.678	1913.553
493384.684	1910.623
493384.714	1909.157
493384.740	1913.553
493384.741	1914.286
493384.759	1910.623
493384.767	1924.542
493384.793	1909.157
493384.805	1912.821
493384.816	1898.901
493384.826	1891.575
493384.853	1904.762
493384.854	1921.612
493384.879	1915.018
493384.893	1926.007
493384.907	1909.890
493384.932	1909.157
493384.938	1912.821
493384.966	1914.286
493384.987	1915.751
493384.989	1926.740
493385.006	1909.890
493385.020	1918.681
493385.038	1906.227
493385.063	1911.355
493385.065	1913.553
493385.097	1910.623
493385.098	1915.018
493385.123	1888.645
493385.149	1902.564
493385.151	1910.623
493385.174	1887.179
493385.179	1901.832
493385.206	1898.901
493385.207	1918.681
493385.221	1901.832
493385.234	1909.890
493385.260	1914.286
493385.265	1910.623
493385.279	1913.553
493385.324	1914.286
493385.326	1911.355
493385.346	1924.542
493385.347	1919.414
493385.358	1880.586
493385.377	1893.773
493385.392	1906.227
493385.409	1899.634
493385.437	1870.330
493385.461	1872.527
493385.462	1890.110
493385.477	1903.297
493385.478	1910.623
493385.495	1914.286
493385.523	1925.275
493385.548	1916.484
493385.549	1917.216
493385.581	1915.751
493385.582	1923.077
493385.591	1904.029
493385.614	1906.227
493385.633	1916.484
493385.642	1912.088
493385.667	1915.018
493385.668	1915.751
493385.696	1920.879
493385.708	1925.275
493385.716	1921.612
493385.741	1929.670
493385.748	1922.344
493385.779	1929.670
493385.781	1919.414
493385.807	1928.205
493385.831	1923.077
493385.847	1919.414
493385.863	1901.832
493385.873	1871.795
493385.881	1879.854
493385.889	1898.168
493385.914	1907.692
493385.932	1919.414
493385.942	1918.681
493385.959	1912.088
493385.973	1910.623
493385.997	1913.553
493385.998	1915.751
493386.032	1926.740
493386.033	1921.612
493386.049	1918.681
493386.063	1905.495
493386.081	1911.355
493386.091	1908.425
493386.113	1918.681
493386.140	1906.960
493386.141	1912.821
493386.166	1914.286
493386.178	1926.007
493386.179	1917.216
493386.211	1911.355
493386.224	1913.553
493386.234	1915.751
493386.261	1905.495
493386.286	1910.623
493386.292	1891.575
493386.333	1899.634
493386.334	1898.168
493386.336	1903.297
493386.357	1909.890
493386.358	1913.553
493386.379	1915.751
493386.387	1926.007
493386.413	1921.612
493386.441	1928.938
493386.452	1922.344
493386.458	1875.458
493386.473	1892.308
493386.507	1899.634
493386.508	1907.692
493386.518	1923.077
493386.536	1918.681
493386.551	1928.205
493386.561	1912.088
493386.586	1913.553
493386.587	1914.286
493386.617	1926.007
493386.643	1920.879
493386.649	1914.286
493386.651	1910.623
493386.682	1909.890
493386.683	1912.821
493386.709	1919.414
493386.733	1918.681
493386.758	1912.821
493386.759	1914.286
493386.774	1926.007
493386.800	1920.879
493386.817	1914.286
493386.831	1906.227
493386.832	1906.960
493386.857	1906.227
493386.883	1917.949
493386.890	1912.088
493386.891	1924.542
493386.912	1915.018
493386.927	1915.018
493386.941	1911.355
493386.969	1880.586
493386.994	1898.901
493386.996	1918.681
493387.001	1916.484
493387.018	1912.088
493387.029	1909.157
493387.055	1923.077
493387.056	1924.542
493387.089	1931.135
493387.090	1923.810
493387.115	1930.403
493387.135	1902.564
493387.143	1904.762
493387.161	1905.495
493387.181	1910.623
493387.182	1912.821
493387.228	1915.018
493387.231	1911.355
493387.237	1909.157
493387.246	1902.564
493387.279	1909.890
493387.281	1912.088
493387.303	1913.553
493387.332	1905.495
493387.333	1905.495
493387.357	1904.762
493387.371	1917.216
493387.372	1911.355
493387.386	1908.425
493387.411	1906.960
493387.451	1912.088
493387.452	1909.157
493387.474	1914.286
493387.475	1915.751
493387.482	1916.484
493387.497	1912.088
493387.523	1925.275
493387.537	1920.879
493387.566	1918.681
493387.584	1916.484
493387.586	1873.260
493387.587	1891.575
493387.617	1909.157
493387.631	1912.821
493387.641	1915.018
493387.666	1910.623
493387.696	1914.286
493387.697	1915.018
493387.723	1926.007
493387.748	1921.612
493387.749	1929.670
493387.752	1918.681
493387.766	1916.484
493387.793	1911.355
493387.820	1913.553
493387.821	1909.890
493387.833	1923.810
493387.846	1915.751
493387.867	1915.751
493387.886	1900.366
493387.898	1909.157
493387.923	1896.703
493387.924	1906.960
493387.947	1906.960
493387.948	1917.949
493387.974	1901.099
493387.981	1915.751
493387.998	1899.634
493388.027	1907.692
493388.052	1906.960
493388.053	1917.949
493388.063	1917.216
493388.079	1917.216
493388.089	1895.971
493388.115	1906.227
493388.160	1906.227
493388.161	1916.484
493388.179	1912.088
493388.181	1885.714
493388.182	1896.703
493388.230	1906.227
493388.234	1906.960
493388.236	1906.227
493388.261	1890.843
493388.288	1899.634
493388.289	1902.564
493388.302	1905.495
493388.340	1901.099
493388.341	1904.029
493388.349	1904.762
493388.365	1906.227
493388.396	1906.227
493388.397	1917.216
493388.412	1911.355
493388.436	1918.681
493388.437	1895.971
493388.461	1901.832
493388.476	1903.297
493388.482	1909.890
493388.511	1897.436
493388.527	1906.960
493388.541	1906.227
493388.549	1911.355
493388.563	1892.308
493388.581	1905.495
493388.594	1889.377
493388.626	1902.564
493388.652	1899.634
493388.653	1903.297
493388.662	1904.029
493388.675	1906.227
493388.688	1893.773
493388.705	1900.366
493388.730	1891.575
493388.754	1899.634
493388.756	1898.168
493388.781	1907.692
493388.787	1906.960
493388.813	1916.484
493388.814	1906.227
493388.825	1912.088
493388.863	1887.912
493388.865	1903.297
493388.882	1893.773
493388.888	1906.227
493388.910	1901.099
493388.923	1880.586
493388.938	1877.656
493388.948	1893.040
493388.976	1893.773
493389.004	1901.099
493389.006	1898.901
493389.031	1906.960
493389.038	1900.366
493389.048	1909.157
493389.068	1889.377
493389.095	1904.029
493389.096	1904.029
493389.121	1893.773
493389.128	1893.773
493389.146	1872.527
493389.152	1879.121
493389.177	1893.773
493389.183	1895.238
493389.208	1901.832
493389.233	1893.040
493389.234	1906.227
493389.253	1895.238
493389.272	1867.399
493389.289	1876.923
493389.306	1892.308
493389.315	1876.923
493389.342	1902.564
493389.343	1897.436
493389.369	1901.832
493389.377	1882.051
493389.386	1900.366
493389.407	1893.040
493389.432	1901.099
493389.458	1887.912
493389.459	1897.436
493389.478	1890.110
493389.492	1893.773
493389.493	1883.516
493389.521	1895.238
493389.537	1889.377
493389.551	1904.029
493389.576	1893.773
493389.577	1901.099
493389.605	1892.308
493389.630	1904.029
493389.631	1893.773
493389.650	1904.762
493389.663	1898.901
493389.688	1904.029
493389.689	1893.773
493389.715	1900.366
493389.724	1891.575
493389.735	1904.762
493389.756	1893.040
493389.766	1905.495
493389.791	1894.505
493389.821	1901.832
493389.822	1891.575
493389.838	1904.762
493389.853	1893.773
493389.875	1894.505
493389.879	1888.645
493389.889	1903.297
493389.920	1893.773
493389.943	1900.366
493389.944	1886.447
493389.953	1897.436
493389.977	1879.854
493389.995	1894.505
493389.996	1879.121
493390.021	1898.901
493390.046	1885.714
493390.047	1901.099
493390.073	1892.308
493390.074	1904.029
493390.089	1893.773
493390.118	1901.099
493390.133	1882.051
493390.142	1899.634
493390.167	1891.575
493390.168	1900.366
493390.186	1892.308
493390.212	1904.762
493390.213	1889.377
493390.243	1898.901
493390.268	1892.308
493390.270	1904.762
493390.295	1884.249
493390.317	1901.099
493390.318	1887.179
493390.333	1898.168
493390.352	1895.971
493390.367	1905.495
493390.396	1884.249
493390.397	1896.703
493390.412	1895.238
493390.431	1901.832
493390.441	1887.179
493390.457	1873.993
493390.473	1879.854
493390.493	1897.436
493390.494	1879.854
493390.520	1898.901
493390.543	1890.110
493390.553	1887.179
493390.575	1875.458
493390.581	1897.436
493390.597	1884.249
493390.623	1861.538
493390.624	1873.993
493390.651	1895.238
493390.652	1889.377
493390.671	1898.168
493390.687	1880.586
493390.711	1904.029
493390.733	1888.645
493390.760	1897.436
493390.761	1880.586
493390.781	1898.901
493390.788	1895.971
493390.810	1906.227
493390.815	1893.773
493390.828	1899.634
493390.847	1891.575
493390.873	1860.806
493390.900	1863.004
493390.900	1890.110
493390.925	1886.447
493390.926	1896.703
493390.943	1879.121
493390.970	1893.773
493390.995	1877.656
493390.996	1892.308
493391.011	1877.656
493391.017	1893.040
493391.042	1877.656
493391.046	1892.308
493391.071	1877.656
493391.081	1897.436
493391.107	1884.249
493391.108	1895.971
493391.135	1884.249
493391.143	1899.634
493391.153	1885.714
493391.183	1897.436
493391.188	1889.377
493391.220	1898.168
493391.221	1884.982
493391.252	1901.099
493391.253	1896.703
493391.271	1866.667
493391.282	1869.597
493391.306	1893.773
493391.314	1883.516
493391.341	1884.249
493391.342	1888.645
493391.362	1898.901
493391.378	1885.714
493391.388	1862.271
493391.407	1873.993
493391.418	1895.971
493391.447	1884.249
493391.472	1899.634
493391.473	1895.971
493391.491	1871.795
493391.492	1883.516
493391.532	1894.505
493391.533	1893.773
493391.551	1905.495
493391.585	1898.901
493391.586	1908.425
493391.605	1889.377
493391.615	1891.575
493391.635	1886.447
493391.647	1895.238
493391.667	1879.854
493391.672	1898.168
493391.705	1880.586
493391.706	1894.505
493391.725	1882.784
493391.742	1898.901
493391.748	1880.586
493391.767	1898.901
493391.781	1890.110
493391.826	1898.901
493391.827	1884.249
493391.837	1901.099
493391.846	1896.703
493391.858	1895.238
493391.886	1879.121
493391.888	1893.040
493391.912	1882.784
493391.938	1900.366
493391.939	1896.703
493391.963	1901.099
493391.970	1891.575
493391.982	1899.634
493392.007	1886.447
493392.021	1895.238
493392.031	1879.121
493392.060	1887.179
493392.061	1885.714
493392.082	1900.366
493392.091	1892.308
493392.117	1904.029
493392.132	1888.645
493392.141	1898.168
493392.198	1884.982
493392.199	1896.703
493392.226	1894.505
493392.227	1904.762
493392.240	1884.249
493392.241	1901.099
493392.257	1892.308
493392.267	1904.762
493392.297	1893.040
493392.316	1904.762
493392.317	1888.645
493392.334	1868.865
493392.346	1871.062
493392.356	1878.388
493392.375	1880.586
493392.401	1903.297
493392.426	1893.773
493392.440	1909.890
493392.441	1891.575
493392.466	1870.330
493392.498	1872.527
493392.505	1888.645
493392.505	1881.319
493392.530	1898.901
493392.531	1895.971
493392.552	1905.495
493392.561	1893.040
493392.579	1893.040
493392.589	1882.051
493392.623	1898.901
493392.650	1890.843
493392.651	1903.297
493392.660	1898.168
493392.677	1873.993
493392.685	1868.865
493392.703	1881.319
493392.728	1876.923
493392.735	1895.971
493392.766	1884.249
493392.767	1895.971
493392.792	1879.854
493392.822	1898.901
493392.823	1890.110
493392.833	1903.297
493392.844	1882.784
493392.871	1895.238
493392.872	1879.854
493392.898	1893.040
493392.908	1883.516
493392.923	1893.773
493392.937	1883.516
493392.951	1899.634
493392.982	1890.110
493392.983	1902.564
493393.008	1897.436
493393.027	1906.960
493393.028	1895.971
493393.047	1901.832
493393.061	1886.447
493393.084	1896.703
493393.086	1890.843
493393.115	1899.634
493393.140	1890.110
493393.141	1898.901
493393.162	1886.447
493393.176	1901.099
493393.186	1893.040
493393.211	1900.366
493393.236	1886.447
493393.257	1897.436
493393.258	1884.982
493393.265	1900.366
493393.295	1886.447
493393.308	1901.832
493393.314	1887.179
493393.328	1897.436
493393.353	1880.586
493393.354	1894.505
493393.376	1890.110
493393.397	1897.436
493393.407	1884.249
493393.463	1895.238
493393.465	1888.645
493393.490	1902.564
493393.491	1887.179
493393.512	1901.099
493393.513	1893.040
493393.514	1904.029
493393.545	1883.516
493393.546	1895.971
493393.571	1888.645
493393.598	1907.692
493393.599	1895.971
493393.612	1910.623
493393.626	1895.971
493393.646	1901.099
493393.652	1893.040
493393.677	1898.901
493393.703	1891.575
493393.704	1904.762
493393.730	1888.645
493393.741	1896.703
493393.756	1885.714
493393.767	1896.703
493393.791	1884.982
493393.817	1900.366
493393.818	1886.447
493393.842	1896.703
493393.843	1884.249
493393.865	1901.099
493393.875	1887.179
493393.891	1901.832
493393.915	1886.447
493393.945	1901.832
493393.970	1891.575
493393.971	1899.634
493393.976	1892.308
493393.992	1904.029
493393.998	1893.040
493394.023	1904.029
493394.027	1893.040
493394.053	1904.029
493394.065	1894.505
493394.097	1895.238
493394.098	1890.110
493394.123	1887.179
493394.133	1885.714
493394.153	1906.227
493394.188	1888.645
493394.189	1902.564
493394.201	1893.773
493394.202	1900.366
493394.231	1890.843
493394.232	1904.029
493394.262	1892.308
493394.263	1888.645
493394.312	1885.714
493394.313	1895.971
493394.315	1884.249
493394.325	1899.634
493394.343	1892.308
493394.367	1893.040
493394.382	1882.784
493394.383	1900.366
493394.412	1892.308
493394.435	1903.297
493394.436	1883.516
493394.465	1895.971
493394.466	1888.645
493394.491	1890.843
493394.492	1882.051
493394.521	1887.912
493394.546	1886.447
493394.547	1901.832
493394.571	1887.179
493394.580	1890.110
493394.596	1886.447
493394.612	1896.703
493394.625	1885.714
493394.650	1889.377
493394.651	1885.714
493394.680	1884.982
493394.681	1889.377
493394.708	1898.168
493394.738	1890.110
493394.740	1897.436
493394.765	1895.238
493394.766	1905.495
493394.791	1893.040
493394.806	1900.366
493394.816	1890.843
493394.840	1876.923
493394.841	1879.854
493394.872	1882.784
493394.873	1882.784
493394.898	1899.634
493394.922	1896.703
493394.923	1906.960
493394.942	1890.110
493394.952	1902.564
493394.971	1893.040
493394.982	1900.366
493395.007	1896.703
493395.032	1906.227
493395.033	1904.029
493395.052	1909.890
493395.076	1901.099
493395.077	1893.040
493395.088	1888.645
493395.121	1891.575
493395.146	1886.447
493395.147	1897.436
493395.155	1890.843
493395.177	1903.297
493395.185	1888.645
493395.208	1895.971
493395.233	1895.971
493395.234	1895.971
493395.263	1895.238
493395.265	1904.762
493395.290	1893.773
493395.312	1904.029
493395.313	1893.040
493395.338	1900.366
493395.376	1887.179
493395.377	1897.436
493395.403	1900.366
493395.419	1908.425
493395.424	1901.832
493395.425	1909.157
493395.440	1895.238
493395.455	1905.495
493395.483	1898.168
493395.511	1907.692
493395.512	1899.634
493395.518	1904.029
493395.530	1893.040
493395.550	1904.762
493395.560	1898.168
493395.593	1902.564
493395.595	1898.901
493395.630	1908.425
493395.631	1901.832
493395.646	1909.157
493395.670	1900.366
493395.671	1897.436
493395.685	1895.971
493395.714	1901.832
493395.738	1903.297
493395.740	1909.157
493395.755	1906.960
493395.765	1906.960
493395.795	1899.634
493395.801	1897.436
493395.830	1895.238
493395.831	1900.366
493395.856	1887.179
493395.857	1901.099
493395.876	1898.168
493395.887	1900.366
493395.913	1898.168
493395.928	1907.692
493395.953	1895.971
493395.980	1906.227
493395.981	1895.238
493395.988	1901.832
493396.013	1896.703
493396.033	1911.355
493396.034	1897.436
493396.062	1880.586
493396.087	1892.308
493396.088	1904.029
493396.090	1893.773
493396.111	1894.505
493396.136	1889.377
493396.145	1901.832
493396.164	1898.901
493396.190	1902.564
493396.191	1898.901
493396.215	1886.447
493396.235	1891.575
493396.236	1902.564
493396.261	1897.436
493396.270	1902.564
493396.295	1893.040
493396.321	1893.773
493396.322	1884.249
493396.330	1900.366
493396.348	1895.971
493396.356	1901.099
493396.378	1901.832
493396.391	1896.703
493396.418	1890.110
493396.419	1903.297
493396.445	1898.168
493396.446	1911.355
493396.474	1906.960
493396.481	1911.355
493396.495	1906.960
493396.523	1910.623
493396.525	1906.227
493396.550	1906.960
493396.573	1899.634
493396.580	1906.960
493396.593	1895.238
493396.617	1905.495
493396.651	1904.029
493396.652	1909.890
493396.685	1906.227
493396.686	1915.018
493396.711	1904.762
493396.712	1905.495
493396.723	1904.029
493396.738	1909.890
493396.752	1895.971
493396.789	1901.832
493396.790	1893.040
493396.814	1899.634
493396.816	1891.575
493396.832	1887.912
493396.843	1891.575
493396.868	1898.901
493396.875	1891.575
493396.900	1899.634
493396.922	1896.703
493396.928	1901.832
493396.940	1893.040
493396.953	1900.366
493396.978	1892.308
493396.992	1899.634
493396.993	1895.971
493397.018	1905.495
493397.043	1898.901
493397.045	1906.227
493397.067	1899.634
493397.082	1908.425
493397.090	1900.366
493397.110	1904.029
493397.138	1893.773
493397.140	1901.099
493397.162	1893.040
493397.187	1877.656
493397.193	1885.714
493397.214	1885.714
493397.215	1889.377
493397.243	1902.564
493397.245	1898.168
493397.270	1906.960
493397.301	1899.634
493397.317	1906.960
493397.318	1895.238
493397.336	1900.366
493397.345	1898.168
493397.371	1906.960
493397.372	1904.762
493397.395	1909.157
493397.412	1905.495
493397.420	1909.890
493397.440	1901.832
493397.450	1907.692
493397.483	1901.099
493397.485	1904.029
493397.510	1903.297
493397.517	1909.157
493397.551	1901.832
493397.552	1909.890
493397.567	1906.960
493397.582	1915.751
493397.608	1905.495
493397.610	1905.495
493397.633	1900.366
493397.664	1885.714
493397.664	1890.843
493397.679	1875.458
493397.685	1886.447
493397.716	1901.099
493397.745	1903.297
493397.746	1904.029
493397.753	1909.157
493397.768	1900.366
493397.788	1892.308
493397.807	1903.297
493397.818	1908.425
493397.847	1912.088
493397.848	1912.821
493397.858	1898.168
493397.878	1906.227
493397.888	1898.901
493397.941	1903.297
493397.942	1881.319
493397.967	1898.168
493397.968	1895.238
493397.993	1906.227
493397.995	1904.762
493398.003	1910.623
493398.020	1906.227
493398.038	1906.960
493398.047	1911.355
493398.083	1917.949
493398.085	1915.751
493398.101	1916.484
493398.115	1911.355
493398.132	1912.821
493398.146	1909.890
493398.152	1913.553
493398.185	1909.157
493398.186	1918.681
493398.211	1912.088
493398.212	1915.018
493398.235	1909.890
493398.252	1908.425
493398.270	1912.821
493398.308	1919.414
493398.310	1917.216
493398.335	1922.344
493398.336	1917.949
493398.343	1917.949
493398.355	1912.088
493398.380	1920.146
493398.388	1917.216
493398.407	1916.484
493398.436	1916.484
493398.437	1921.612
493398.458	1917.216
493398.472	1923.077
493398.496	1907.692
493398.506	1910.623
493398.523	1908.425
493398.526	1911.355
493398.551	1907.692
493398.584	1922.344
493398.608	1914.286
493398.610	1925.275
493398.622	1915.751
493398.652	1915.018
493398.653	1892.308
493398.680	1904.029
493398.703	1882.784
493398.706	1905.495
493398.707	1905.495
493398.717	1894.505
493398.743	1900.366
493398.758	1906.960
493398.766	1909.890
493398.793	1924.542
493398.805	1915.018
493398.820	1915.751
493398.821	1914.286
493398.850	1925.275
493398.867	1909.890
493398.877	1908.425
493398.908	1906.227
493398.933	1921.612
493398.935	1913.553
493398.942	1909.890
493398.958	1884.982
493398.968	1896.703
493398.993	1901.832
493399.025	1904.762
493399.026	1904.762
493399.045	1920.879
493399.046	1916.484
493399.068	1911.355
493399.082	1908.425
493399.100	1922.344
493399.116	1913.553
493399.148	1910.623
493399.150	1907.692
493399.161	1922.344
493399.176	1917.949
493399.182	1926.740
493399.216	1916.484
493399.231	1926.740
493399.232	1910.623
493399.257	1909.157
493399.275	1912.088
493399.286	1924.542
493399.293	1919.414
493399.318	1928.205
493399.339	1916.484
493399.340	1915.751
493399.365	1910.623
493399.390	1912.821
493399.396	1891.575
493399.415	1899.634
493399.423	1880.586
493399.438	1905.495
493399.461	1893.773
493399.473	1899.634
493399.498	1901.099
493399.521	1918.681
493399.522	1911.355
493399.540	1923.810
493399.552	1914.286
493399.576	1910.623
493399.577	1912.088
493399.593	1913.553
493399.617	1909.157
493399.618	1923.077
493399.640	1912.821
493399.653	1920.146
493399.676	1912.821
493399.685	1908.425
493399.708	1912.088
493399.737	1920.879
493399.763	1910.623
493399.765	1908.425
493399.770	1900.366
493399.791	1918.681
493399.800	1901.099
493399.823	1887.179
493399.857	1873.993
493399.858	1895.971
493399.885	1898.901
493399.915	1906.960
493399.916	1900.366
493399.917	1918.681
493399.932	1905.495
493399.941	1905.495
493399.981	1898.168
493399.982	1906.227
493399.991	1898.901
493400.014	1907.692
493400.015	1894.505
493400.037	1911.355
493400.050	1908.425
493400.060	1895.971
493400.086	1890.110
493400.087	1913.553
493400.112	1898.168
493400.123	1890.843
493400.147	1903.297
493400.153	1920.146
493400.177	1900.366
493400.181	1918.681
493400.206	1895.971
493400.221	1890.110
493400.237	1898.168
493400.250	1890.843
493400.273	1902.564
493400.290	1919.414
493400.296	1912.821
493400.322	1909.890
493400.346	1889.377
493400.348	1898.168
493400.364	1906.227
493400.377	1920.879
493400.387	1907.692
493400.410	1906.960
493400.436	1895.238
493400.458	1905.495
493400.461	1898.168
493400.495	1917.216
493400.496	1904.762
493400.522	1920.146
493400.525	1901.099
493400.556	1918.681
493400.557	1900.366
493400.577	1918.681
493400.578	1906.227
493400.601	1906.227
493400.616	1884.249
493400.623	1895.238
493400.655	1878.388
493400.656	1896.703
493400.681	1890.110
493400.682	1913.553
493400.703	1897.436
493400.721	1901.832
493400.735	1907.692
493400.758	1906.227
493400.768	1909.890
493400.795	1895.971
493400.796	1888.645
493400.821	1912.821
493400.822	1897.436
493400.845	1917.216
493400.856	1911.355
493400.881	1909.157
493400.882	1895.971
493400.908	1916.484
493400.931	1914.286
493400.941	1921.612
493400.958	1902.564
493400.972	1904.029
493400.992	1893.773
493401.007	1905.495
493401.038	1899.634
493401.057	1906.960
493401.058	1894.505
493401.060	1915.751
493401.081	1909.890
493401.091	1901.099
493401.136	1898.168
493401.137	1906.227
493401.162	1899.634
493401.189	1917.949
493401.190	1904.762
493401.196	1917.216
493401.215	1916.484
493401.216	1915.751
493401.235	1910.623
493401.273	1906.960
493401.275	1895.238
493401.288	1916.484
493401.290	1904.029
493401.320	1909.157
493401.333	1905.495
493401.343	1909.890
493401.368	1907.692
493401.395	1910.623
493401.396	1901.099
493401.410	1915.018
493401.431	1898.901
493401.437	1907.692
493401.462	1909.890
493401.471	1907.692
493401.496	1890.110
493401.533	1898.901
493401.535	1879.854
493401.537	1897.436
493401.547	1890.110
493401.567	1898.168
493401.583	1895.238
493401.614	1900.366
493401.615	1903.297
493401.647	1919.414
493401.658	1906.227
493401.661	1920.879
493401.677	1905.495
493401.683	1916.484
493401.714	1910.623
493401.747	1923.077
493401.749	1906.960
493401.779	1921.612
493401.780	1901.832
493401.806	1919.414
493401.814	1900.366
493401.815	1918.681
493401.830	1904.762
493401.857	1910.623
493401.882	1896.703
493401.883	1900.366
493401.895	1885.714
493401.912	1896.703
493401.928	1883.516
493401.938	1894.505
493401.964	1898.168
493401.996	1906.960
493401.998	1900.366
493402.007	1903.297
493402.022	1898.901
493402.043	1917.216
493402.045	1904.762
493402.062	1909.157
493402.097	1896.703
493402.112	1916.484
493402.115	1904.029
493402.123	1865.934
493402.149	1884.982
493402.153	1910.623
493402.178	1911.355
493402.180	1912.088
493402.208	1907.692
493402.236	1921.612
493402.245	1912.088
493402.259	1907.692
493402.274	1900.366
493402.287	1906.960
493402.292	1905.495
493402.317	1905.495
493402.342	1905.495
493402.355	1909.157
493402.373	1884.249
493402.380	1899.634
493402.387	1891.575
493402.418	1913.553
493402.445	1909.157
493402.446	1907.692
493402.472	1906.960
493402.477	1906.227
493402.491	1898.901
493402.511	1902.564
493402.512	1892.308
493402.537	1899.634
493402.546	1895.238
493402.571	1910.623
493402.595	1912.088
493402.602	1923.810
493402.617	1918.681
493402.641	1916.484
493402.647	1899.634
493402.663	1902.564
493402.689	1882.051
493402.690	1893.773
493402.715	1903.297
493402.731	1919.414
493402.736	1901.099
493402.748	1906.960
493402.773	1898.901
493402.775	1917.216
493402.801	1915.751
493402.826	1926.007
493402.842	1920.146
493402.843	1912.821
493402.869	1901.832
493402.875	1907.692
493402.885	1910.623
493402.910	1923.077
493402.934	1912.088
493402.936	1912.821
493402.962	1901.832
493402.970	1904.029
493402.994	1897.436
493403.011	1901.832
493403.018	1892.308
493403.045	1887.179
493403.071	1873.260
493403.072	1893.773
493403.100	1898.901
493403.114	1912.821
493403.120	1912.821
493403.136	1923.810
493403.161	1912.088
493403.177	1923.810
493403.178	1920.146
493403.187	1923.077
493403.212	1907.692
493403.213	1921.612
493403.244	1911.355
493403.278	1909.157
493403.280	1904.762
493403.296	1916.484
493403.297	1915.751
493403.320	1898.901
493403.335	1900.366
493403.345	1903.297
493403.380	1897.436
493403.381	1906.227
493403.406	1888.645
493403.417	1897.436
493403.422	1883.516
493403.446	1895.238
493403.447	1899.634
493403.472	1917.949
493403.489	1905.495
493403.516	1909.157
493403.540	1911.355
493403.541	1912.088
493403.552	1909.157
493403.567	1906.960
493403.584	1911.355
493403.605	1923.077
493403.634	1902.564
493403.660	1918.681
493403.661	1911.355
493403.667	1912.821
493403.693	1902.564
493403.695	1904.029
493403.712	1905.495
493403.713	1920.146
493403.740	1922.344
493403.770	1928.938
493403.771	1921.612
493403.787	1885.714
493403.794	1895.971
493403.822	1900.366
493403.836	1908.425
493403.842	1905.495
493403.870	1904.762
493403.871	1915.751
493403.894	1909.890
493403.909	1868.132
493403.919	1880.586
493403.937	1893.773
493403.961	1892.308
493403.986	1902.564
493403.987	1890.843
493404.012	1859.341
493404.017	1887.179
493404.032	1895.971
493404.051	1893.773
493404.061	1904.029
493404.099	1902.564
493404.100	1915.018
493404.124	1913.553
493404.125	1919.414
493404.142	1916.484
493404.159	1911.355
493404.175	1896.703
493404.186	1872.527
493404.211	1883.516
493404.212	1899.634
493404.238	1903.297
493404.247	1919.414
493404.272	1904.762
493404.276	1920.146
493404.295	1912.821
493404.320	1923.810
493404.321	1917.949
493404.346	1926.007
493404.372	1904.762
493404.392	1905.495
493404.393	1905.495
493404.407	1864.469
493404.458	1880.586
493404.460	1898.901
493404.481	1902.564
493404.482	1907.692
493404.492	1909.890
493404.506	1911.355
493404.516	1903.297
493404.538	1903.297
493404.548	1904.762
493404.598	1909.157
493404.601	1912.821
493404.602	1923.810
493404.618	1919.414
493404.628	1915.751
493404.643	1904.029
493404.662	1876.190
493404.689	1891.575
493404.714	1903.297
493404.715	1908.425
493404.722	1921.612
493404.741	1917.216
493404.770	1916.484
493404.771	1893.040
493404.818	1899.634
493404.819	1881.319
493404.820	1893.040
493404.832	1902.564
493404.851	1915.018
493404.865	1914.286
493404.875	1909.157
493404.890	1906.960
493404.947	1909.890
493404.950	1906.960
493404.975	1909.890
493404.976	1912.088
493404.997	1912.821
493404.998	1912.821
493405.014	1913.553
493405.020	1909.157
493405.046	1906.960
493405.071	1904.762
493405.080	1904.762
493405.080	1893.040
493405.100	1899.634
493405.111	1901.832
493405.131	1902.564
493405.144	1904.029
493405.170	1875.458
493405.171	1895.971
493405.192	1904.762
493405.203	1909.890
493405.226	1906.960
493405.236	1905.495
493405.246	1909.157
493405.271	1907.692
493405.299	1921.612
493405.300	1912.821
493405.314	1869.597
493405.339	1887.912
493405.340	1897.436
493405.366	1896.703
493405.380	1899.634
493405.414	1901.832
493405.415	1918.681
493405.435	1915.751
493405.450	1910.623
493405.464	1911.355
493405.473	1907.692
493405.495	1895.238
493405.525	1901.099
493405.550	1906.960
493405.551	1910.623
493405.557	1906.227
493405.571	1866.667
493405.577	1882.051
493405.606	1887.912
493405.607	1900.366
493405.632	1913.553
493405.659	1909.157
493405.660	1912.088
493405.682	1903.297
493405.682	1915.018
493405.731	1898.901
493405.732	1901.832
493405.733	1895.971
493405.760	1904.762
493405.782	1904.029
493405.783	1915.751
493405.799	1898.901
493405.817	1902.564
493405.835	1903.297
493405.846	1904.762
493405.872	1898.168
493405.873	1901.832
493405.899	1907.692
493405.906	1917.216
493405.930	1899.634
493405.943	1913.553
493405.951	1909.157
493405.981	1900.366
493405.982	1906.227
493406.009	1916.484
493406.026	1909.890
493406.037	1912.088
493406.046	1901.099
493406.077	1886.447
493406.078	1895.238
493406.115	1904.029
493406.116	1904.029
493406.137	1909.157
493406.138	1901.832
493406.160	1906.960
493406.174	1898.901
493406.190	1901.832
493406.205	1891.575
493406.230	1904.029
493406.257	1903.297
493406.284	1914.286
493406.285	1908.425
493406.304	1912.088
493406.305	1892.308
493406.315	1909.157
493406.325	1894.505
493406.350	1904.029
493406.371	1904.029
493406.376	1915.018
493406.395	1909.890
493406.410	1917.949
493406.435	1904.029
493406.440	1904.029
493406.471	1887.912
493406.472	1902.564
493406.488	1887.179
493406.506	1906.960
493406.522	1893.040
493406.537	1903.297
493406.554	1904.029
493406.590	1904.029
493406.601	1904.029
493406.609	1909.890
493406.610	1906.227
493406.626	1876.190
493406.650	1873.993
493406.651	1895.238
493406.678	1883.516
493406.680	1898.901
493406.705	1901.099
493406.732	1903.297
493406.741	1902.564
493406.765	1903.297
493406.766	1898.901
493406.786	1906.227
493406.792	1900.366
493406.817	1907.692
493406.842	1900.366
493406.843	1903.297
493406.864	1898.168
493406.889	1901.832
493406.890	1897.436
493406.915	1895.971
493406.941	1898.901
493406.942	1906.960
493406.963	1893.773
493406.972	1904.029
493406.987	1887.179
493406.999	1873.260
493407.024	1871.062
493407.025	1887.912
493407.057	1885.714
493407.058	1898.901
493407.080	1895.971
493407.090	1901.099
493407.115	1897.436
493407.130	1904.762
493407.145	1898.168
493407.162	1906.960
493407.191	1904.029
493407.192	1904.029
493407.205	1896.703
493407.215	1906.227
493407.240	1887.912
493407.265	1906.227
493407.267	1898.901
493407.298	1902.564
493407.298	1897.436
493407.319	1906.227
493407.336	1893.773
493407.347	1904.029
493407.372	1886.447
493407.373	1901.099
493407.399	1890.843
493407.429	1898.168
493407.430	1889.377
493407.445	1873.993
493407.447	1877.656
493407.473	1895.971
493407.481	1888.645
493407.529	1901.832
493407.530	1884.982
493407.564	1900.366
493407.565	1890.110
493407.590	1897.436
493407.591	1888.645
493407.602	1897.436
493407.617	1889.377
493407.619	1902.564
493407.647	1892.308
493407.673	1903.297
493407.674	1893.040
493407.682	1904.029
493407.707	1892.308
493407.721	1898.168
493407.736	1884.249
493407.762	1894.505
493407.764	1887.912
493407.789	1890.843
493407.801	1887.179
493407.816	1899.634
493407.835	1884.249
493407.845	1898.901
493407.872	1879.854
493407.897	1897.436
493407.898	1888.645
493407.912	1896.703
493407.920	1893.773
493407.943	1904.762
493407.950	1887.912
493407.980	1897.436
493407.981	1889.377
493408.017	1901.099
493408.021	1890.843
493408.030	1863.004
493408.055	1861.538
493408.056	1882.784
493408.081	1871.795
493408.091	1860.806
493408.119	1871.795
493408.120	1887.912
493408.145	1885.714
493408.174	1883.516
493408.175	1872.527
493408.192	1854.212
493408.206	1873.260
493408.216	1865.201
493408.242	1868.132
493408.243	1891.575
493408.274	1886.447
493408.281	1899.634
493408.296	1884.982
493408.314	1856.410
493408.342	1863.736
493408.343	1884.982
493408.370	1878.388
493408.371	1901.099
493408.392	1895.238
493408.416	1904.029
493408.424	1887.179
493408.452	1884.982
493408.479	1873.260
493408.480	1893.040
493408.505	1887.179
493408.508	1901.099
493408.523	1890.110
493408.525	1898.168
493408.556	1882.784
493408.587	1893.773
493408.614	1877.656
493408.620	1895.971
493408.621	1877.656
493408.636	1891.575
493408.641	1876.190
493408.662	1890.843
493408.676	1879.854
493408.685	1896.703
493408.710	1887.912
493408.736	1895.971
493408.739	1889.377
493408.746	1901.099
493408.771	1891.575
493408.777	1898.168
493408.805	1890.110
493408.831	1901.832
493408.832	1891.575
493408.861	1874.725
493408.862	1879.121
493408.880	1862.271
493408.895	1868.132
493408.914	1887.179
493408.915	1884.249
493408.940	1904.029
493408.971	1886.447
493408.974	1899.634
493408.989	1884.249
493409.005	1898.901
493409.020	1879.854
493409.035	1896.703
493409.060	1888.645
493409.085	1890.843
493409.086	1875.458
493409.096	1879.121
493409.110	1875.458
493409.127	1884.982
493409.141	1877.656
493409.161	1890.843
493409.195	1879.854
493409.196	1897.436
493409.206	1889.377
493409.231	1863.004
493409.232	1866.667
493409.262	1890.843
493409.264	1880.586
493409.292	1897.436
493409.315	1879.121
493409.316	1896.703
493409.337	1882.784
493409.346	1893.773
493409.355	1880.586
493409.382	1893.773
493409.383	1886.447
493409.409	1900.366
493409.427	1885.714
493409.454	1895.971
493409.455	1888.645
493409.480	1891.575
493409.487	1880.586
493409.498	1865.201
493409.524	1868.132
493409.525	1886.447
493409.554	1884.249
493409.555	1895.238
493409.580	1888.645
493409.596	1890.110
493409.610	1879.121
493409.641	1897.436
493409.642	1882.784
493409.667	1893.773
493409.681	1891.575
493409.687	1898.168
493409.704	1883.516
493409.729	1898.901
493409.732	1883.516
493409.749	1898.168
493409.776	1890.110
493409.794	1895.238
493409.807	1887.179
493409.819	1884.982
493409.834	1877.656
493409.845	1896.703
493409.871	1882.784
493409.872	1894.505
493409.897	1881.319
493409.915	1898.168
493409.930	1884.249
493409.940	1899.634
493409.950	1884.249
493409.975	1894.505
493409.981	1887.912
493410.030	1895.971
493410.032	1887.912
493410.038	1896.703
493410.050	1879.121
493410.076	1868.865
493410.077	1870.330
493410.104	1892.308
493410.129	1880.586
493410.130	1892.308
493410.153	1876.923
493410.165	1895.971
493410.175	1882.051
493410.187	1854.945
493410.212	1862.271
493410.244	1873.260
493410.245	1871.062
493410.264	1887.912
493410.265	1884.982
493410.285	1861.538
493410.294	1872.527
493410.317	1888.645
493410.334	1884.982
493410.364	1899.634
493410.365	1884.249
493410.381	1894.505
493410.389	1882.051
493410.417	1897.436
493410.419	1893.773
493410.437	1903.297
493410.451	1896.703
493410.481	1904.762
493410.482	1893.040
493410.502	1898.901
493410.514	1884.982
493410.539	1900.366
493410.545	1884.982
493410.560	1898.901
493410.590	1884.982
493410.617	1899.634
493410.626	1879.854
493410.627	1892.308
493410.642	1881.319
493410.656	1886.447
493410.680	1873.260
493410.687	1888.645
493410.712	1884.249
493410.744	1893.773
493410.745	1886.447
493410.770	1899.634
493410.771	1894.505
493410.785	1903.297
493410.794	1886.447
493410.826	1895.238
493410.851	1883.516
493410.852	1894.505
493410.870	1882.784
493410.871	1898.168
493410.887	1879.121
493410.906	1887.179
493410.921	1879.121
493410.954	1892.308
493410.955	1887.179
493410.975	1899.634
493410.995	1889.377
493411.015	1895.971
493411.016	1883.516
493411.041	1893.040
493411.051	1876.190
493411.076	1890.843
493411.077	1880.586
493411.099	1897.436
493411.126	1884.249
493411.132	1893.773
493411.145	1882.051
493411.154	1893.773
493411.179	1886.447
493411.180	1895.971
493411.205	1893.040
493411.221	1887.912
493411.236	1879.854
493411.244	1896.703
493411.269	1889.377
493411.285	1879.121
493411.312	1880.586
493411.314	1896.703
493411.331	1883.516
493411.347	1871.062
493411.377	1871.795
493411.379	1893.040
493411.392	1886.447
493411.424	1888.645
493411.425	1889.377
493411.450	1879.121
493411.459	1879.121
493411.470	1892.308
493411.495	1881.319
493411.506	1893.773
493411.517	1887.179
493411.543	1900.366
493411.544	1891.575
493411.567	1901.832
493411.580	1884.982
493411.590	1898.901
493411.614	1884.249
493411.626	1895.238
493411.661	1882.784
493411.692	1893.773
493411.694	1887.179
493411.695	1904.762
493411.711	1893.040
493411.712	1882.051
493411.737	1882.784
493411.747	1881.319
493411.773	1882.051
493411.773	1893.040
493411.804	1891.575
493411.817	1898.168
493411.831	1884.982
493411.860	1872.527
493411.865	1871.795
493411.900	1893.773
493411.922	1886.447
493411.925	1895.238
493411.926	1893.040
493411.944	1876.923
493411.951	1879.121
493411.970	1884.982
493411.984	1877.656
493412.019	1879.121
493412.020	1870.330
493412.046	1876.190
493412.071	1879.121
493412.072	1895.238
493412.079	1882.784
493412.099	1893.040
493412.110	1882.051
493412.139	1886.447
493412.140	1878.388
493412.161	1891.575
493412.180	1876.190
493412.181	1879.121
493412.206	1884.982
493412.230	1882.784
493412.231	1876.923
493412.257	1895.971
493412.282	1882.784
493412.289	1894.505
493412.290	1882.784
493412.319	1887.179
493412.342	1884.982
493412.344	1899.634
493412.372	1879.854
493412.392	1892.308
493412.394	1882.051
493412.411	1874.725
493412.418	1877.656
493412.442	1879.854
493412.449	1881.319
493412.474	1881.319
493412.499	1882.051
493412.525	1893.773
493412.526	1882.051
493412.544	1898.168
493412.548	1888.645
493412.566	1884.982
493412.580	1877.656
493412.611	1889.377
493412.612	1885.714
493412.649	1878.388
493412.650	1879.121
493412.675	1892.308
493412.676	1885.714
493412.684	1877.656
493412.709	1879.854
493412.736	1891.575
493412.755	1891.575
493412.757	1903.297
493412.771	1896.703
493412.777	1900.366
493412.796	1885.714
493412.821	1884.249
493412.855	1882.051
493412.856	1893.773
493412.876	1882.784
493412.877	1893.773
493412.892	1882.051
493412.912	1893.773
493412.931	1892.308
493412.940	1902.564
493412.966	1890.110
493412.967	1897.436
493412.988	1894.505
493413.009	1876.923
493413.019	1879.121
493413.042	1873.993
493413.044	1876.923
493413.069	1894.505
493413.100	1882.784
493413.110	1897.436
493413.111	1884.249
493413.122	1894.505
493413.141	1893.040
493413.156	1887.179
493413.181	1884.982
493413.207	1882.784
493413.209	1882.784
493413.225	1897.436
493413.234	1889.377
493413.267	1879.121
493413.268	1886.447
493413.298	1873.260
493413.299	1873.260
493413.326	1893.040
493413.357	1896.703
493413.359	1899.634
493413.365	1885.714
493413.381	1884.249
493413.382	1882.784
493413.407	1886.447
493413.435	1893.773
493413.461	1903.297
493413.462	1891.575
493413.491	1901.832
493413.492	1895.238
493413.505	1898.901
493413.515	1890.110
493413.540	1890.110
493413.567	1885.714
493413.584	1900.366
493413.585	1890.110
493413.601	1902.564
493413.612	1895.971
493413.626	1883.516
493413.644	1882.051
493413.672	1876.190
493413.674	1884.982
493413.692	1898.901
493413.706	1900.366
493413.731	1889.377
493413.732	1885.714
493413.751	1900.366
493413.767	1890.110
493413.792	1897.436
493413.794	1893.773
493413.810	1898.901
493413.835	1889.377
493413.846	1901.832
493413.854	1890.843
493413.879	1901.099
493413.886	1897.436
493413.912	1901.099
493413.939	1897.436
493413.940	1905.495
493413.965	1893.040
493413.966	1904.029
493413.995	1898.168
493413.996	1895.971
493414.026	1898.168
493414.044	1901.099
493414.045	1890.843
493414.066	1902.564
493414.081	1895.971
493414.092	1883.516
493414.113	1893.040
493414.122	1885.714
493414.150	1893.773
493414.164	1903.297
493414.177	1898.168
493414.183	1905.495
493414.209	1903.297
493414.235	1901.832
493414.236	1891.575
493414.267	1896.703
493414.269	1889.377
493414.284	1884.249
493414.294	1887.179
493414.319	1895.238
493414.322	1897.436
493414.347	1900.366
493414.372	1900.366
493414.374	1902.564
493414.400	1901.099
493414.412	1902.564
493414.430	1901.099
493414.440	1906.960
493414.449	1893.040
493414.482	1898.168
493414.510	1898.901
493414.531	1901.099
493414.532	1890.843
493414.537	1901.832
493414.566	1895.238
493414.589	1900.366
493414.591	1900.366
493414.621	1902.564
493414.622	1890.843
493414.639	1898.168
493414.640	1898.901
493414.655	1901.099
493414.681	1895.971
493414.698	1898.901
493414.707	1894.505
493414.737	1891.575
493414.739	1891.575
493414.752	1886.447
493414.771	1883.516
493414.777	1894.505
493414.795	1887.912
493414.814	1899.634
493414.826	1895.238
493414.850	1904.029
493414.876	1897.436
493414.877	1901.099
493414.889	1895.238
493414.911	1903.297
493414.921	1897.436
493414.940	1889.377
493414.965	1884.249
493414.966	1895.238
493414.991	1892.308
493415.015	1898.901
493415.026	1894.505
493415.041	1881.319
493415.048	1881.319
493415.073	1896.703
493415.098	1894.505
493415.121	1898.901
493415.122	1890.110
493415.136	1897.436
493415.137	1890.110
493415.169	1901.099
493415.170	1895.971
493415.184	1904.029
493415.215	1897.436
493415.241	1901.099
493415.261	1895.238
493415.262	1903.297
493415.270	1898.168
493415.286	1900.366
493415.292	1890.843
493415.319	1901.832
493415.345	1896.703
493415.346	1904.762
493415.356	1893.040
493415.380	1898.901
493415.398	1899.634
493415.407	1901.832
493415.458	1895.971
493415.459	1892.308
493415.466	1893.040
493415.472	1897.436
493415.491	1898.168
493415.505	1904.762
493415.519	1897.436
493415.536	1889.377
493415.562	1885.714
493415.564	1900.366
493415.585	1896.703
493415.599	1900.366
493415.609	1895.238
493415.634	1898.901
493415.642	1895.238
493415.652	1899.634
493415.679	1905.495
493415.705	1904.029
493415.706	1897.436
493415.727	1889.377
493415.736	1895.238
493415.754	1876.190
493415.769	1890.843
493415.795	1890.110
493415.796	1895.971
493415.812	1900.366
493415.825	1901.832
493415.855	1903.297
493415.856	1906.960
493415.877	1905.495
493415.888	1897.436
493415.914	1904.762
493415.915	1903.297
493415.937	1908.425
493415.958	1905.495
493415.970	1904.029
493415.991	1904.029
493416.022	1909.157
493416.024	1904.762
493416.049	1885.714
493416.050	1890.110
493416.067	1889.377
493416.079	1896.703
493416.091	1899.634
493416.116	1906.960
493416.121	1909.157
493416.146	1916.484
493416.174	1915.018
493416.175	1915.018
493416.185	1898.168
493416.214	1910.623
493416.215	1906.960
493416.241	1909.890
493416.242	1906.227
493416.271	1915.018
493416.298	1912.821
493416.299	1912.821
493416.318	1901.832
493416.337	1912.821
493416.344	1908.425
493416.369	1906.227
493416.394	1909.157
493416.395	1909.890
493416.415	1895.238
493416.431	1909.890
493416.437	1911.355
493416.463	1912.821
493416.470	1908.425
493416.495	1912.088
493416.521	1907.692
493416.522	1906.227
493416.552	1904.029
493416.554	1914.286
493416.565	1909.157
493416.580	1893.773
493416.586	1893.040
493416.611	1909.890
493416.639	1906.960
493416.640	1921.612
493416.664	1915.751
493416.677	1914.286
493416.686	1912.088
493416.706	1906.960
493416.731	1893.773
493416.732	1903.297
493416.758	1906.960
493416.770	1905.495
493416.796	1885.714
493416.811	1900.366
493416.812	1905.495
493416.830	1909.157
493416.857	1910.623
493416.886	1922.344
493416.887	1910.623
493416.889	1918.681
493416.915	1910.623
493416.916	1917.949
493416.944	1910.623
493416.949	1917.949
493416.976	1915.018
493417.002	1924.542
493417.005	1917.216
493417.016	1898.901
493417.041	1905.495
493417.044	1909.157
493417.067	1905.495
493417.096	1919.414
493417.098	1915.018
493417.122	1896.703
493417.148	1904.029
493417.149	1908.425
493417.165	1882.784
493417.179	1898.168
493417.185	1901.099
493417.212	1917.216
493417.214	1909.157
493417.237	1921.612
493417.251	1899.634
493417.266	1906.227
493417.281	1909.890
493417.305	1906.227
493417.339	1904.762
493417.340	1915.018
493417.362	1903.297
493417.364	1919.414
493417.376	1903.297
493417.385	1903.297
493417.411	1880.586
493417.439	1893.040
493417.464	1875.458
493417.478	1885.714
493417.479	1888.645
493417.490	1896.703
493417.500	1900.366
493417.517	1906.227
493417.534	1904.029
493417.559	1895.971
493417.584	1898.901
493417.585	1896.703
493417.597	1894.505
493417.611	1914.286
493417.621	1912.821
493417.648	1908.425
493417.664	1905.495
493417.690	1904.762
493417.691	1881.319
493417.711	1886.447
493417.719	1877.656
493417.742	1894.505
493417.744	1893.040
493417.786	1909.157
493417.811	1899.634
493417.838	1917.216
493417.839	1903.297
493417.850	1918.681
493417.851	1898.168
493417.867	1916.484
493417.876	1909.157
493417.890	1906.960
493417.916	1905.495
493417.944	1919.414
493417.945	1904.762
493417.958	1920.146
493417.971	1904.762
493417.996	1897.436
493418.006	1882.784
493418.034	1893.040
493418.035	1880.586
493418.060	1881.319
493418.061	1885.714
493418.080	1909.890
493418.094	1906.227
493418.109	1904.029
493418.137	1903.297
493418.139	1903.297
493418.164	1895.971
493418.186	1904.029
493418.187	1895.971
493418.207	1904.029
493418.225	1892.308
493418.239	1898.901
493418.270	1889.377
493418.271	1896.703
493418.296	1882.784
493418.311	1893.040
493418.312	1886.447
493418.340	1906.227
493418.342	1904.029
493418.367	1909.890
493418.375	1910.623
493418.400	1910.623
493418.428	1895.238
493418.458	1910.623
493418.459	1895.238
493418.471	1910.623
493418.471	1895.238
493418.498	1898.901
493418.499	1889.377
493418.524	1907.692
493418.525	1897.436
493418.551	1901.099
493418.559	1895.238
493418.585	1898.901
493418.586	1889.377
493418.611	1906.960
493418.641	1904.029
493418.642	1918.681
493418.654	1898.901
493418.679	1901.099
493418.680	1895.238
493418.711	1902.564
493418.725	1895.971
493418.750	1895.238
493418.774	1892.308
493418.776	1898.168
493418.792	1894.505
493418.810	1903.297
493418.811	1891.575
493418.826	1901.099
493418.851	1895.238
493418.877	1914.286
493418.879	1897.436
493418.898	1893.773
493418.916	1892.308
493418.927	1902.564
493418.942	1895.971
493418.957	1915.018
493418.983	1896.703
493419.007	1915.018
493419.009	1897.436
493419.021	1915.751
493419.026	1908.425
493419.057	1920.879
493419.076	1904.762
493419.077	1908.425
493419.103	1904.762
493419.129	1904.029
493419.130	1892.308
493419.140	1913.553
493419.165	1907.692
493419.175	1910.623
493419.185	1899.634
493419.210	1905.495
493419.241	1897.436
493419.242	1915.751
493419.261	1902.564
493419.262	1914.286
493419.286	1908.425
493419.308	1920.879
493419.316	1915.751
493419.349	1924.542
493419.349	1906.227
493419.367	1915.751
493419.381	1902.564
493419.385	1904.029
493419.410	1892.308
493419.429	1912.821
493419.459	1907.692
493419.483	1910.623
493419.485	1895.238
493419.508	1904.029
493419.510	1903.297
493419.524	1901.832
493419.534	1903.297
493419.550	1895.971
493419.579	1893.040
493419.580	1897.436
493419.602	1904.762
493419.613	1918.681
493419.637	1904.029
493419.639	1907.692
493419.655	1898.168
493419.691	1905.495
493419.725	1893.040
493419.726	1913.553
493419.751	1901.832
493419.752	1901.832
493419.771	1896.703
493419.772	1889.377
493419.790	1890.110
493419.816	1901.099
493419.817	1895.238
493419.841	1914.286
493419.842	1901.099
493419.868	1906.227
493419.876	1886.447
493419.891	1898.901
493419.916	1898.901
493419.942	1905.495
493419.969	1897.436
493419.972	1915.751
493419.974	1904.029
493419.995	1902.564
493419.996	1897.436
493420.027	1904.762
493420.054	1904.029
493420.055	1902.564
493420.081	1902.564
493420.082	1912.821
493420.106	1901.099
493420.115	1901.832
493420.121	1900.366
493420.146	1912.821
493420.171	1912.088
493420.172	1922.344
493420.195	1917.216
493420.209	1924.542
493420.219	1917.216
493420.243	1909.890
493420.250	1888.645
493420.300	1899.634
493420.301	1878.388
493420.306	1890.110
493420.346	1884.982
493420.349	1893.773
493420.351	1897.436
493420.365	1898.901
493420.379	1904.762
493420.405	1912.821
493420.423	1906.960
493420.434	1919.414
493420.435	1900.366
493420.458	1901.832
493420.469	1895.971
493420.490	1900.366
493420.492	1895.971
493420.524	1910.623
493420.545	1910.623
493420.546	1910.623
493420.569	1899.634
493420.579	1912.088
493420.592	1900.366
493420.610	1905.495
493420.640	1893.040
493420.641	1902.564
493420.666	1901.832
493420.667	1912.821
493420.683	1895.971
493420.707	1914.286
493420.725	1909.157
493420.750	1905.495
493420.775	1881.319
493420.776	1896.703
493420.794	1904.762
493420.805	1903.297
493420.816	1906.960
493420.838	1915.751
493420.850	1909.157
493420.875	1906.227
493420.876	1904.029
493420.902	1898.168
493420.904	1904.762
493420.929	1906.960
493420.943	1893.773
493420.950	1887.179
493420.975	1894.505
493420.976	1909.157
493421.007	1905.495
493421.034	1915.018
493421.035	1908.425
493421.049	1888.645
493421.063	1884.982
493421.077	1894.505
493421.102	1903.297
493421.127	1917.949
493421.129	1913.553
493421.146	1890.843
493421.161	1896.703
493421.175	1899.634
493421.184	1890.110
493421.212	1895.971
493421.246	1877.656
493421.247	1894.505
493421.249	1898.901
493421.275	1889.377
493421.276	1896.703
493421.302	1910.623
493421.315	1899.634
493421.341	1873.993
493421.342	1893.040
493421.365	1908.425
493421.380	1906.227
493421.389	1908.425
493421.414	1898.168
493421.428	1911.355
493421.438	1895.971
493421.463	1898.901
493421.484	1904.762
493421.491	1918.681
493421.492	1915.018
493421.518	1913.553
493421.526	1901.832
493421.551	1906.960
493421.557	1904.762
493421.586	1918.681
493421.589	1915.018
493421.615	1923.810
493421.641	1917.949
493421.642	1910.623
493421.654	1906.960
493421.679	1909.157
493421.680	1906.227
493421.705	1908.425
493421.731	1899.634
493421.732	1916.484
493421.755	1906.960
493421.770	1908.425
493421.789	1910.623
493421.821	1912.088
493421.822	1901.099
493421.834	1917.216
493421.845	1915.018
493421.852	1908.425
493421.877	1894.505
493421.889	1869.597
493421.909	1887.179
493421.919	1861.538
493421.945	1882.051
493421.946	1896.703
493421.969	1904.029
493421.984	1906.960
493421.998	1902.564
493422.016	1907.692
493422.030	1898.168
493422.055	1904.762
493422.079	1907.692
493422.080	1920.146
493422.091	1909.157
493422.121	1920.879
493422.122	1910.623
493422.155	1912.088
493422.156	1906.960
493422.199	1905.495
493422.200	1885.714
493422.210	1899.634
493422.224	1904.762
493422.256	1914.286
493422.258	1909.157
493422.271	1916.484
493422.300	1912.821
493422.323	1918.681
493422.324	1909.890
493422.335	1905.495
493422.346	1898.168
493422.356	1871.062
493422.384	1881.319
493422.385	1907.692
493422.415	1909.157
493422.439	1920.879
493422.440	1911.355
493422.458	1867.399
493422.471	1885.714
493422.489	1865.201
493422.495	1889.377
493422.520	1895.971
493422.545	1903.297
493422.556	1903.297
493422.570	1884.982
493422.584	1898.168
493422.590	1900.366
493422.609	1901.832
493422.647	1906.960
493422.648	1904.762
493422.672	1904.029
493422.674	1909.157
493422.680	1904.762
493422.706	1914.286
493422.722	1907.692
493422.741	1904.762
493422.770	1907.692
493422.771	1905.495
493422.788	1908.425
493422.804	1909.157
493422.815	1904.029
493422.829	1874.725
493422.846	1887.912
493422.856	1865.934
493422.882	1890.110
493422.884	1906.960
493422.909	1904.029
493422.934	1873.260
493422.935	1888.645
493422.956	1895.971
493422.969	1898.901
493422.998	1901.099
493422.999	1905.495
493423.024	1904.029
493423.032	1887.179
493423.055	1895.238
493423.063	1902.564
493423.086	1906.227
493423.087	1909.157
493423.115	1916.484
493423.146	1912.821
493423.148	1906.227
493423.166	1904.762
493423.171	1909.157
493423.181	1904.762
493423.206	1915.018
493423.238	1907.692
493423.239	1909.890
493423.261	1904.762
493423.263	1908.425
493423.289	1904.029
493423.304	1904.029
493423.315	1906.960
493423.328	1876.190
493423.353	1893.773
493423.378	1904.029
493423.379	1907.692
493423.389	1865.934
493423.413	1884.249
493423.414	1893.040
493423.440	1897.436
493423.470	1865.934
493423.495	1868.865
493423.505	1890.110
493423.506	1879.854
493423.539	1890.843
493423.540	1895.971
493423.553	1909.890
493423.560	1910.623
493423.585	1905.495
493423.586	1904.029
493423.614	1914.286
493423.631	1906.960
493423.641	1904.762
493423.667	1898.168
493423.674	1901.099
493423.684	1895.238
493423.710	1903.297
493423.738	1903.297
493423.739	1902.564
493423.754	1901.099
493423.766	1901.099
493423.785	1895.971
493423.805	1898.901
493423.834	1898.901
493423.835	1911.355
493423.855	1906.960
493423.856	1915.751
493423.878	1901.832
493423.887	1863.736
493423.913	1883.516
493423.914	1893.040
493423.946	1895.971
493423.948	1909.890
493423.979	1900.366
493423.985	1901.099
493424.009	1890.110
493424.020	1901.099
493424.035	1896.703
493424.064	1903.297
493424.065	1901.832
493424.091	1861.538
493424.093	1883.516
493424.111	1896.703
493424.125	1887.912
493424.140	1895.238
493424.169	1898.168
493424.170	1910.623
493424.195	1901.099
493424.221	1912.088
493424.223	1906.227
493424.238	1876.190
493424.263	1867.399
493424.264	1884.982
493424.291	1881.319
493424.318	1896.703
493424.319	1903.297
493424.334	1907.692
493424.350	1893.040
493424.370	1901.832
493424.379	1889.377
493424.388	1901.099
493424.419	1878.388
493424.420	1890.843
493424.439	1900.366
493424.449	1904.762
493424.470	1903.297
493424.480	1902.564
493424.494	1901.099
493424.518	1902.564
493424.544	1885.714
493424.545	1893.773
493424.561	1896.703
493424.585	1898.901
493424.586	1899.634
493424.619	1906.227
493424.634	1901.832
493424.664	1902.564
493424.665	1901.832
493424.678	1906.960
493424.685	1904.029
493424.709	1906.960
493424.723	1902.564
493424.739	1907.692
493424.745	1904.029
493424.778	1908.425
493424.786	1903.297
493424.818	1868.865
493424.819	1881.319
493424.844	1896.703
493424.845	1898.168
493424.854	1904.762
493424.881	1891.575
493424.882	1897.436
493424.908	1898.901
493424.927	1900.366
493424.945	1882.784
493424.964	1893.040
493424.965	1890.843
493424.990	1900.366
493424.991	1895.971
493425.018	1899.634
493425.040	1894.505
493425.046	1898.901
493425.071	1882.051
493425.079	1898.168
493425.093	1882.784
493425.121	1897.436
493425.149	1888.645
493425.150	1895.238
493425.159	1896.703
493425.178	1860.806
493425.186	1876.923
493425.243	1893.040
493425.268	1879.854
493425.269	1895.238
493425.274	1896.703
493425.275	1903.297
493425.276	1880.586
493425.306	1892.308
493425.313	1886.447
493425.335	1893.773
493425.364	1885.714
493425.365	1893.773
493425.388	1886.447
493425.389	1898.168
493425.414	1889.377
493425.415	1899.634
493425.443	1888.645
493425.473	1895.971
493425.499	1887.179
493425.500	1894.505
493425.528	1890.843
493425.528	1896.703
493425.544	1887.179
493425.545	1895.238
493425.568	1887.179
493425.576	1899.634
493425.601	1884.249
493425.628	1897.436
493425.629	1883.516
493425.641	1858.608
493425.655	1859.341
493425.675	1847.619
493425.684	1858.608
493425.713	1880.586
493425.744	1879.121
493425.745	1889.377
493425.763	1883.516
493425.764	1897.436
493425.785	1887.179
493425.804	1895.238
493425.813	1876.190
493425.839	1889.377
493425.859	1884.249
493425.860	1893.773
493425.878	1876.190
493425.889	1854.945
493425.910	1861.538
493425.921	1891.575
493425.976	1878.388
493425.978	1890.843
493425.981	1879.854
493425.982	1890.843
493425.995	1878.388
493426.025	1895.971
493426.044	1876.923
493426.045	1894.505
493426.070	1885.714
493426.103	1894.505
493426.104	1880.586
493426.129	1890.843
493426.149	1879.121
493426.159	1879.854
493426.168	1873.993
493426.193	1854.212
493426.194	1856.410
493426.219	1879.121
493426.220	1877.656
493426.236	1893.773
493426.251	1880.586
493426.265	1890.843
493426.296	1879.854
493426.325	1894.505
493426.326	1876.190
493426.338	1893.773
493426.343	1879.854
493426.370	1891.575
493426.371	1873.993
493426.385	1887.912
493426.441	1883.516
493426.443	1885.714
493426.454	1872.527
493426.463	1891.575
493426.476	1875.458
493426.488	1860.806
493426.498	1859.341
493426.519	1885.714
493426.544	1882.051
493426.545	1895.971
493426.570	1887.179
493426.579	1899.634
493426.595	1878.388
493426.609	1885.714
493426.633	1871.795
493426.643	1891.575
493426.668	1879.854
493426.669	1895.238
493426.688	1886.447
493426.704	1904.029
493426.734	1885.714
493426.735	1894.505
493426.753	1879.854
493426.786	1857.875
493426.788	1863.004
493426.805	1883.516
493426.816	1876.190
493426.836	1889.377
493426.846	1884.249
493426.865	1858.608
493426.894	1859.341
493426.895	1870.330
493426.925	1868.132
493426.926	1873.993
493426.938	1876.190
493426.953	1890.110
493426.971	1884.249
493426.996	1859.341
493426.998	1863.736
493427.023	1883.516
493427.039	1874.725
493427.050	1893.773
493427.061	1885.714
493427.086	1894.505
493427.088	1886.447
493427.113	1894.505
493427.141	1881.319
493427.142	1890.843
493427.164	1873.993
493427.185	1893.040
493427.193	1875.458
493427.209	1893.773
493427.216	1886.447
493427.244	1894.505
493427.245	1886.447
493427.270	1895.238
493427.286	1890.843
493427.304	1901.832
493427.318	1879.121
493427.324	1895.238
493427.349	1886.447
493427.374	1893.773
493427.375	1890.110
493427.400	1901.099
493427.425	1893.773
493427.448	1898.168
493427.450	1877.656
493427.459	1895.238
493427.466	1881.319
493427.496	1895.971
493427.498	1891.575
493427.520	1895.971
493427.529	1876.923
493427.558	1882.784
493427.566	1871.062
493427.581	1886.447
493427.589	1882.784
493427.614	1892.308
493427.638	1879.121
493427.639	1894.505
493427.664	1876.190
493427.675	1893.773
493427.684	1875.458
493427.709	1889.377
493427.734	1882.784
493427.735	1896.703
493427.760	1881.319
493427.773	1881.319
493427.788	1869.597
493427.799	1874.725
493427.823	1865.201
493427.824	1873.260
493427.851	1876.190
493427.853	1893.040
493427.878	1886.447
493427.891	1859.341
493427.915	1859.341
493427.916	1886.447
493427.975	1882.051
493427.976	1896.703
493427.990	1891.575
493428.015	1897.436
493428.016	1892.308
493428.037	1901.832
493428.038	1884.249
493428.050	1898.168
493428.075	1887.179
493428.076	1899.634
493428.106	1888.645
493428.108	1899.634
493428.126	1882.051
493428.144	1881.319
493428.173	1880.586
493428.174	1895.238
493428.208	1876.923
493428.209	1894.505
493428.226	1886.447
493428.238	1898.901
493428.251	1883.516
493428.275	1881.319
493428.286	1874.725
493428.316	1887.912
493428.341	1876.923
493428.343	1894.505
493428.345	1886.447
493428.355	1887.179
493428.380	1883.516
493428.386	1892.308
493428.410	1885.714
493428.440	1898.168
493428.441	1877.656
493428.455	1863.004
493428.468	1865.934
493428.499	1850.549
493428.503	1865.934
493428.519	1872.527
493428.544	1870.330
493428.545	1885.714
493428.571	1871.795
493428.590	1892.308
493428.591	1874.725
493428.624	1893.040
493428.625	1890.110
493428.650	1895.971
493428.651	1891.575
493428.676	1895.971
493428.701	1892.308
493428.703	1901.099
493428.728	1883.516
493428.738	1896.703
493428.763	1882.051
493428.764	1891.575
493428.789	1879.854
493428.818	1891.575
493428.819	1879.121
493428.834	1895.238
493428.845	1880.586
493428.859	1880.586
493428.883	1873.260
493428.884	1887.912
493428.913	1887.912
493428.914	1899.634
493428.938	1893.040
493428.951	1892.308
493428.969	1879.854
493428.991	1885.714
493428.996	1871.795
493429.025	1890.843
493429.050	1879.854
493429.051	1891.575
493429.066	1879.121
493429.078	1895.971
493429.093	1876.923
493429.145	1887.912
493429.146	1882.051
493429.171	1892.308
493429.173	1879.854
493429.178	1895.971
493429.183	1885.714
493429.209	1893.040
493429.234	1885.714
493429.236	1893.040
493429.265	1879.854
493429.266	1895.971
493429.291	1881.319
493429.319	1891.575
493429.320	1884.249
493429.343	1893.773
493429.344	1881.319
493429.369	1890.843
493429.370	1879.854
493429.396	1895.238
493429.410	1887.179
493429.419	1894.505
493429.445	1876.190
493429.446	1894.505
493429.471	1890.843
493429.498	1884.249
493429.499	1882.051
493429.524	1891.575
493429.536	1874.725
493429.555	1892.308
493429.556	1879.854
493429.584	1889.377
493429.589	1888.645
493429.614	1898.901
493429.639	1889.377
493429.640	1895.971
493429.666	1876.923
493429.668	1890.110
493429.685	1883.516
493429.715	1887.179
493429.716	1887.179
493429.745	1899.634
493429.746	1889.377
493429.773	1895.971
493429.785	1876.923
493429.820	1890.110
493429.821	1878.388
493429.849	1890.843
493429.850	1873.993
493429.876	1888.645
493429.878	1877.656
493429.885	1868.132
493429.914	1868.865
493429.915	1885.714
493429.940	1876.923
493429.965	1872.527
493429.966	1880.586
493429.996	1895.971
493429.998	1887.179
493430.020	1898.168
493430.029	1889.377
493430.053	1889.377
493430.064	1888.645
493430.089	1888.645
493430.090	1884.249
493430.117	1897.436
493430.133	1882.051
493430.143	1880.586
493430.161	1874.725
493430.175	1881.319
493430.184	1873.993
493430.210	1892.308
493430.236	1885.714
493430.246	1894.505
493430.255	1876.190
493430.270	1884.249
493430.286	1875.458
493430.303	1892.308
493430.330	1880.586
493430.331	1890.110
493430.350	1878.388
493430.365	1894.505
493430.379	1879.854
493430.386	1895.971
493430.410	1891.575
493430.438	1900.366
493430.439	1883.516
493430.466	1887.179
493430.474	1883.516
493430.491	1893.040
493430.491	1879.854
493430.518	1883.516
493430.526	1876.190
493430.551	1877.656
493430.578	1879.121
493430.579	1894.505
493430.604	1880.586
493430.630	1895.971
493430.631	1887.912
493430.640	1895.238
493430.665	1885.714
493430.690	1893.773
493430.691	1881.319
493430.708	1869.597
493430.738	1873.993
493430.739	1891.575
493430.761	1884.249
493430.763	1897.436
493430.788	1887.179
493430.814	1898.901
493430.815	1887.912
493430.840	1873.260
493430.841	1871.062
493430.856	1891.575
493430.875	1883.516
493430.885	1885.714
493430.915	1887.179
493430.929	1898.168
493430.940	1882.784
493430.954	1876.923
493430.971	1872.527
493430.983	1875.458
493430.996	1882.051
493431.021	1885.714
493431.046	1887.179
493431.048	1893.773
493431.070	1885.714
493431.080	1887.179
493431.091	1877.656
493431.146	1890.110
493431.148	1883.516
493431.178	1892.308
493431.179	1890.843
493431.185	1896.703
493431.186	1893.040
493431.211	1890.110
493431.235	1893.773
493431.236	1901.832
493431.248	1884.249
493431.273	1893.773
493431.293	1890.110
493431.305	1901.099
493431.313	1884.249
493431.338	1882.051
493431.339	1880.586
493431.371	1878.388
493431.373	1878.388
493431.403	1888.645
493431.414	1888.645
493431.439	1890.110
493431.440	1884.249
493431.470	1871.062
493431.471	1874.725
493431.504	1870.330
493431.505	1874.725
493431.530	1893.040
493431.541	1891.575
493431.549	1900.366
493431.563	1893.773
493431.581	1890.843
493431.594	1879.854
493431.621	1879.854
493431.647	1885.714
493431.648	1897.436
493431.661	1893.773
493431.670	1898.168
493431.685	1887.912
493431.710	1894.505
493431.711	1892.308
493431.739	1901.099
493431.764	1895.971
493431.777	1903.297
493431.778	1900.366
493431.809	1904.762
493431.810	1895.971
493431.846	1898.168
493431.871	1888.645
493431.873	1877.656
493431.898	1882.784
493431.899	1891.575
493431.921	1884.249
493431.923	1887.912
493431.939	1878.388
493431.955	1890.843
493431.980	1884.249
493432.010	1896.703
493432.011	1891.575
493432.018	1900.366
493432.031	1893.040
493432.055	1896.703
493432.056	1891.575
493432.085	1890.110
493432.086	1893.773
493432.113	1901.832
493432.135	1899.634
493432.145	1904.029
493432.160	1890.843
493432.175	1895.971
493432.189	1887.912
493432.220	1898.901
493432.221	1898.168
493432.248	1882.051
493432.255	1886.447
493432.270	1898.901
493432.285	1888.645
493432.303	1895.238
493432.336	1890.843
493432.338	1896.703
493432.361	1887.179
493432.373	1893.773
493432.383	1884.982
493432.395	1881.319
493432.411	1880.586
493432.420	1883.516
493432.453	1886.447
493432.454	1894.505
493432.479	1886.447
493432.480	1893.773
493432.505	1895.238
493432.515	1898.168
493432.540	1882.784
493432.548	1892.308
493432.575	1880.586
493432.576	1891.575
493432.589	1889.377
493432.614	1898.901
493432.630	1898.168
493432.640	1898.168
493432.665	1892.308
493432.693	1901.099
493432.694	1898.901
493432.710	1909.157
493432.724	1903.297
493432.740	1906.227
493432.754	1896.703
493432.769	1898.168
493432.794	1893.040
493432.795	1901.832
493432.820	1898.901
493432.821	1900.366
493432.850	1894.505
493432.869	1902.564
493432.876	1894.505
493432.886	1902.564
493432.915	1894.505
493432.940	1901.832
493432.941	1890.110
493432.955	1888.645
493432.967	1883.516
493432.988	1893.040
493433.010	1885.714
493433.016	1897.436
493433.050	1893.040
493433.068	1901.832
493433.069	1889.377
493433.081	1899.634
493433.089	1888.645
493433.120	1894.505
493433.149	1890.843
493433.150	1896.703
493433.176	1892.308
493433.178	1896.703
493433.194	1893.040
493433.203	1897.436
493433.228	1891.575
493433.238	1879.121
493433.263	1884.249
493433.289	1896.703
493433.290	1891.575
493433.318	1896.703
493433.319	1892.308
493433.339	1901.832
493433.340	1898.901
493433.365	1899.634
493433.376	1894.505
493433.401	1901.832
493433.403	1895.238
493433.426	1898.168
493433.439	1898.168
493433.450	1904.029
493433.476	1895.971
493433.484	1898.901
493433.519	1893.773
493433.540	1902.564
493433.541	1889.377
493433.551	1900.366
493433.566	1894.505
493433.579	1902.564
493433.589	1895.971
493433.618	1902.564
493433.619	1900.366
493433.649	1905.495
493433.664	1897.436
493433.674	1903.297
493433.685	1885.714
493433.709	1898.901
493433.717	1899.634
493433.746	1876.190
493433.776	1883.516
493433.778	1868.865
493433.803	1880.586
493433.829	1890.843
493433.830	1893.773
493433.831	1901.832
493433.846	1889.377
493433.871	1884.249
493433.896	1892.308
493433.898	1896.703
493433.910	1898.901
493433.919	1898.901
493433.943	1904.029
493433.949	1902.564
493433.978	1901.099
493433.979	1901.099
493434.005	1906.227
493434.015	1903.297
493434.033	1901.099
493434.046	1900.366
493434.066	1901.099
493434.106	1900.366
493434.108	1905.495
493434.133	1880.586
493434.139	1890.843
493434.140	1894.505
493434.159	1902.564
493434.178	1890.110
493434.183	1901.832
493434.208	1904.762
493434.235	1913.553
493434.258	1906.227
493434.259	1909.157
493434.273	1904.029
493434.286	1902.564
493434.293	1901.099
493434.318	1906.227
493434.343	1903.297
493434.344	1912.821
493434.365	1911.355
493434.380	1920.879
493434.386	1914.286
493434.420	1917.949
493434.431	1909.157
493434.440	1909.157
493434.468	1893.040
493434.481	1903.297
493434.495	1906.227
493434.508	1903.297
493434.518	1890.110
493434.526	1883.516
493434.550	1893.040
493434.575	1901.832
493434.594	1882.784
493434.600	1895.971
493434.610	1898.168
493434.620	1898.901
493434.653	1904.029
493434.668	1912.821
493434.669	1910.623
493434.703	1905.495
493434.704	1902.564
493434.729	1912.088
493434.736	1905.495
493434.745	1891.575
493434.770	1896.703
493434.789	1913.553
493434.815	1906.227
493434.844	1907.692
493434.858	1891.575
493434.859	1901.832
493434.860	1901.099
493434.876	1901.099
493434.890	1904.762
493434.905	1903.297
493434.931	1901.832
493434.958	1906.960
493434.959	1903.297
493434.966	1906.960
493435.013	1907.692
493435.025	1904.762
493435.031	1880.586
493435.056	1895.238
493435.081	1898.168
493435.108	1915.018
493435.109	1906.227
493435.124	1918.681
493435.125	1909.157
493435.143	1904.029
493435.149	1900.366
493435.175	1889.377
493435.176	1894.505
493435.185	1912.821
493435.204	1906.960
493435.228	1907.692
493435.235	1904.029
493435.259	1906.227
493435.265	1906.960
493435.292	1909.157
493435.293	1903.297
493435.315	1913.553
493435.340	1899.634
493435.352	1904.762
493435.371	1884.982
493435.381	1897.436
493435.409	1898.168
493435.410	1898.901
493435.430	1887.912
493435.441	1901.099
493435.463	1900.366
493435.468	1901.099
493435.488	1894.505
493435.525	1909.157
493435.542	1904.029
493435.543	1917.949
493435.550	1908.425
493435.575	1908.425
493435.576	1908.425
493435.598	1908.425
493435.621	1902.564
493435.623	1905.495
493435.648	1896.703
493435.668	1914.286
493435.669	1904.762
493435.697	1917.949
493435.714	1908.425
493435.725	1909.157
493435.735	1899.634
493435.765	1904.029
493435.781	1895.971
493435.784	1913.553
493435.803	1899.634
493435.819	1898.901
493435.824	1883.516
493435.849	1903.297
493435.883	1889.377
493435.884	1895.238
493435.906	1892.308
493435.908	1912.088
493435.921	1893.773
493435.945	1901.099
493435.946	1898.901
493436.000	1899.634
493436.001	1877.656
493436.026	1890.110
493436.028	1887.912
493436.049	1900.366
493436.050	1904.029
493436.061	1868.865
493436.086	1885.714
493436.088	1904.029
493436.124	1890.110
493436.142	1906.960
493436.143	1895.971
493436.154	1887.179
493436.181	1893.040
493436.183	1896.703
493436.206	1887.179
493436.243	1909.157
493436.255	1893.040
493436.260	1912.821
493436.268	1894.505
493436.278	1885.714
493436.296	1893.040
493436.338	1897.436
493436.339	1882.784
493436.364	1895.971
493436.365	1890.843
493436.390	1895.971
493436.405	1875.458
493436.406	1888.645
493436.419	1882.784
493436.439	1890.843
493436.464	1899.634
493436.465	1910.623
493436.489	1893.040
493436.507	1912.088
493436.520	1894.505
493436.538	1908.425
493436.553	1904.762
493436.579	1908.425
493436.580	1892.308
493436.605	1885.714
493436.615	1882.051
493436.638	1902.564
493436.639	1900.366
493436.664	1899.634
493436.673	1887.912
493436.704	1905.495
493436.705	1895.238
493436.731	1881.319
493436.738	1869.597
493436.765	1890.110
493436.766	1873.260
493436.789	1887.912
493436.799	1877.656
493436.824	1877.656
493436.849	1882.051
493436.850	1895.971
493436.869	1886.447
493436.875	1892.308
493436.890	1895.238
493436.905	1902.564
493436.931	1895.971
493436.956	1896.703
493436.958	1887.179
493436.990	1904.029
493436.991	1895.238
493437.018	1908.425
493437.024	1893.040
493437.049	1862.271
493437.050	1860.073
493437.077	1873.993
493437.078	1860.073
493437.105	1890.110
493437.107	1894.505
493437.136	1897.436
493437.141	1903.297
493437.167	1901.099
493437.168	1889.377
493437.206	1906.227
493437.208	1891.575
493437.228	1911.355
493437.234	1898.168
493437.254	1903.297
493437.265	1889.377
493437.320	1895.238
493437.321	1874.725
493437.329	1892.308
493437.330	1894.505
493437.354	1890.110
493437.367	1888.645
493437.376	1893.773
493437.388	1895.971
493437.414	1901.832
493437.415	1890.110
493437.436	1906.227
493437.449	1906.960
493437.470	1908.425
493437.481	1907.692
493437.509	1903.297
493437.534	1899.634
493437.535	1911.355
493437.560	1898.901
493437.568	1910.623
493437.579	1904.762
493437.614	1901.832
493437.639	1894.505
493437.665	1912.821
493437.666	1898.901
493437.688	1910.623
493437.689	1893.773
493437.690	1912.088
493437.706	1895.238
493437.728	1912.821
493437.735	1901.099
493437.760	1901.099
493437.786	1877.656
493437.794	1889.377
493437.795	1887.912
493437.816	1894.505
493437.834	1890.843
493437.848	1895.971
493437.873	1891.575
493437.874	1901.099
493437.905	1889.377
493437.906	1910.623
493437.924	1898.901
493437.938	1893.040
493437.965	1890.843
493437.966	1895.971
493437.994	1893.040
493438.029	1900.366
493438.030	1893.773
493438.045	1895.971
493438.048	1891.575
493438.068	1890.110
493438.083	1890.110
493438.097	1898.901
493438.127	1887.912
493438.147	1904.762
493438.153	1890.843
493438.179	1910.623
493438.180	1903.297
493438.185	1905.495
493438.208	1901.832
493438.252	1893.773
493438.253	1890.843
493438.254	1906.960
493438.279	1891.575
493438.307	1906.960
493438.308	1902.564
493438.318	1912.088
493438.344	1904.762
493438.345	1901.832
493438.370	1901.099
493438.371	1911.355
493438.392	1905.495
493438.414	1902.564
493438.432	1901.832
493438.444	1900.366
493438.469	1904.762
493438.470	1902.564
493438.498	1901.099
493438.507	1905.495
493438.515	1890.843
493438.535	1900.366
493438.547	1899.634
493438.572	1899.634
493438.597	1900.366
493438.615	1911.355
493438.619	1898.901
493438.636	1915.018
493438.649	1906.227
493438.670	1901.832
493438.678	1890.110
493438.686	1895.238
493438.712	1886.447
493438.713	1897.436
493438.738	1902.564
493438.760	1912.088
493438.761	1894.505
493438.788	1896.703
493438.793	1887.179
493438.822	1894.505
493438.847	1901.099
493438.848	1899.634
493438.863	1893.040
493438.903	1896.703
493438.904	1902.564
493438.912	1915.751
493438.927	1908.425
493438.952	1903.297
493438.977	1906.227
493438.978	1907.692
493438.988	1908.425
493439.016	1907.692
493439.024	1881.319
493439.038	1890.843
493439.072	1884.249
493439.092	1887.179
493439.094	1894.505
493439.100	1907.692
493439.120	1892.308
493439.134	1895.971
493439.142	1887.179
493439.153	1898.168
493439.179	1887.179
493439.180	1904.762
493439.210	1906.227
493439.229	1917.949
493439.235	1906.227
493439.255	1906.960
493439.264	1895.971
493439.281	1886.447
493439.305	1897.436
493439.323	1898.168
493439.333	1886.447
493439.344	1893.773
493439.368	1885.714
493439.377	1892.308
493439.387	1884.249
493439.417	1896.703
493439.418	1898.901
493439.443	1899.634
493439.444	1900.366
493439.471	1915.018
493439.488	1900.366
493439.505	1900.366
493439.535	1888.645
493439.536	1905.495
493439.562	1906.227
493439.593	1914.286
493439.594	1910.623
493439.604	1905.495
493439.611	1903.297
493439.623	1872.527
493439.674	1884.982
493439.675	1892.308
493439.676	1879.121
493439.685	1850.549
493439.710	1876.923
493439.728	1898.901
493439.735	1898.901
493439.755	1893.773
493439.785	1885.714
493439.786	1904.029
493439.803	1890.110
493439.817	1906.227
493439.840	1906.960
493439.841	1903.297
493439.870	1901.099
493439.871	1895.238
493439.898	1897.436
493439.923	1909.890
493439.924	1904.029
493439.940	1866.667
493439.965	1873.260
493439.967	1886.447
493439.978	1893.040
493440.010	1895.238
493440.031	1897.436
493440.039	1909.157
493440.048	1893.040
493440.075	1906.960
493440.077	1903.297
493440.103	1895.971
493440.129	1880.586
493440.163	1895.238
493440.164	1879.854
493440.189	1884.982
493440.191	1897.436
493440.202	1909.157
493440.203	1897.436
493440.244	1898.168
493440.245	1892.308
493440.268	1906.960
493440.269	1903.297
493440.281	1865.934
493440.295	1878.388
493440.313	1900.366
493440.335	1893.040
493440.345	1900.366
493440.373	1898.168
493440.374	1913.553
493440.383	1910.623
493440.408	1904.762
493440.417	1906.960
493440.442	1903.297
493440.453	1884.249
493440.478	1895.971
493440.479	1885.714
493440.509	1903.297
493440.520	1901.099
493440.535	1899.634
493440.547	1899.634
493440.568	1898.901
493440.582	1903.297
493440.620	1905.495
493440.624	1902.564
493440.631	1912.088
493440.650	1906.227
493440.663	1906.227
493440.673	1902.564
493440.684	1904.762
493440.718	1901.832
493440.745	1911.355
493440.750	1904.762
493440.759	1911.355
493440.773	1904.029
493440.787	1868.132
493440.819	1888.645
493440.820	1904.762
493440.845	1897.436
493440.847	1903.297
493440.872	1901.099
493440.873	1911.355
493440.885	1905.495
493440.909	1906.227
493440.935	1898.168
493440.936	1898.901
493440.962	1898.901
493440.987	1898.901
493440.988	1899.634
493440.995	1870.330
493441.019	1885.714
493441.033	1904.029
493441.048	1899.634
493441.079	1904.762
493441.103	1902.564
493441.104	1900.366
493441.113	1900.366
493441.134	1904.029
493441.142	1905.495
493441.162	1901.832
493441.172	1899.634
493441.204	1898.901
493441.205	1903.297
493441.222	1861.538
493441.235	1870.330
493441.245	1884.982
493441.267	1896.703
493441.276	1902.564
493441.290	1901.099
493441.317	1911.355
493441.336	1888.645
493441.351	1893.773
493441.369	1885.714
493441.383	1897.436
493441.384	1898.168
493441.412	1898.168
493441.437	1898.168
493441.438	1903.297
493441.470	1900.366
493441.472	1904.029
493441.498	1895.238
493441.510	1908.425
493441.515	1902.564
493441.540	1904.762
493441.565	1901.832
493441.567	1911.355
493441.575	1904.029
493441.607	1901.832
493441.617	1898.901
493441.640	1898.901
493441.645	1888.645
493441.670	1898.168
493441.672	1898.901
493441.685	1904.762
493441.707	1896.703
493441.727	1903.297
493441.740	1890.843
493441.749	1905.495
493441.775	1895.971
493441.776	1902.564
493441.802	1904.762
493441.812	1911.355
493441.837	1905.495
493441.841	1906.227
493441.868	1896.703
493441.874	1901.832
493441.903	1894.505
493441.924	1907.692
493441.925	1907.692
493441.940	1864.469
493441.964	1871.795
493441.965	1890.110
493441.993	1883.516
493442.019	1895.971
493442.020	1896.703
493442.045	1898.168
493442.046	1898.168
493442.072	1902.564
493442.107	1893.773
493442.112	1897.436
493442.113	1896.703
493442.138	1858.608
493442.139	1879.121
493442.165	1893.040
493442.174	1895.238
493442.190	1868.865
493442.204	1873.260
493442.215	1882.051
493442.234	1885.714
493442.259	1891.575
493442.273	1895.971
493442.274	1901.832
493442.292	1893.040
493442.318	1902.564
493442.335	1900.366
493442.348	1900.366
493442.373	1903.297
493442.374	1906.227
493442.395	1897.436
493442.412	1902.564
493442.432	1899.634
493442.442	1898.901
493442.449	1898.168
493442.473	1898.168
493442.512	1893.773
493442.517	1897.436
493442.518	1893.040
493442.537	1861.538
493442.551	1881.319
493442.568	1894.505
493442.577	1895.971
493442.609	1898.168
493442.632	1897.436
493442.633	1902.564
493442.643	1900.366
493442.668	1870.330
493442.675	1883.516
493442.690	1890.843
493442.705	1877.656
493442.731	1855.678
493442.732	1873.260
493442.765	1887.179
493442.767	1897.436
493442.788	1893.040
493442.798	1890.843
493442.812	1895.238
493442.837	1876.190
493442.870	1887.912
493442.872	1892.308
493442.879	1895.238
493442.888	1895.971
493442.912	1901.832
493442.923	1894.505
493442.949	1896.703
493442.950	1893.040
493442.975	1896.703
493442.977	1893.040
493443.009	1899.634
493443.018	1882.784
493443.037	1862.271
493443.047	1875.458
493443.088	1892.308
493443.089	1890.110
493443.099	1894.505
493443.123	1890.843
493443.133	1898.901
493443.142	1898.901
493443.163	1884.982
493443.173	1885.714
493443.198	1896.703
493443.223	1890.843
493443.224	1898.901
493443.239	1887.912
493443.254	1894.505
493443.268	1885.714
493443.292	1859.341
493443.293	1873.260
493443.324	1891.575
493443.339	1889.377
493443.340	1894.505
493443.367	1874.725
493443.392	1893.040
493443.393	1884.982
493443.408	1863.004
493443.418	1865.201
493443.448	1887.912
493443.459	1880.586
493443.473	1894.505
493443.495	1889.377
493443.507	1898.168
493443.521	1887.179
493443.529	1893.040
493443.554	1884.249
493443.555	1896.703
493443.583	1886.447
493443.589	1898.168
493443.608	1887.179
493443.635	1859.341
493443.637	1868.132
493443.662	1884.249
493443.687	1879.854
493443.688	1895.238
493443.713	1884.982
493443.724	1890.843
493443.741	1876.923
493443.752	1881.319
493443.805	1872.527
493443.814	1891.575
493443.815	1879.121
493443.817	1888.645
493443.823	1872.527
493443.848	1886.447
493443.867	1876.190
493443.875	1887.179
493443.889	1871.062
493443.914	1885.714
493443.937	1876.190
493443.938	1888.645
493443.959	1876.190
493443.969	1888.645
493443.994	1871.795
493444.026	1886.447
493444.027	1885.714
493444.052	1892.308
493444.082	1873.993
493444.082	1881.319
493444.085	1878.388
493444.092	1888.645
493444.115	1882.051
493444.146	1890.843
493444.163	1873.260
493444.164	1891.575
493444.170	1877.656
493444.184	1853.480
493444.209	1865.201
493444.215	1882.051
493444.239	1878.388
493444.273	1888.645
493444.274	1882.051
493444.285	1894.505
493444.295	1880.586
493444.329	1854.945
493444.334	1860.073
493444.344	1879.854
493444.359	1871.795
493444.397	1890.110
493444.398	1877.656
493444.408	1887.912
493444.418	1876.190
493444.438	1891.575
493444.452	1873.260
493444.475	1891.575
493444.502	1872.527
493444.526	1887.179
493444.528	1870.330
493444.542	1890.110
493444.543	1876.923
493444.570	1888.645
493444.581	1882.051
493444.589	1863.004
493444.625	1865.201
493444.627	1887.179
493444.663	1871.062
493444.664	1890.110
493444.683	1882.784
493444.692	1896.703
493444.708	1880.586
493444.717	1878.388
493444.742	1876.923
493444.767	1887.912
493444.768	1876.190
493444.793	1848.352
493444.794	1856.410
493444.820	1878.388
493444.822	1876.923
493444.857	1892.308
493444.858	1883.516
493444.884	1895.971
493444.885	1885.714
493444.910	1893.040
493444.927	1878.388
493444.938	1889.377
493444.963	1872.527
493444.989	1890.110
493444.990	1872.527
493445.009	1874.725
493445.017	1870.330
493445.027	1884.249
493445.048	1875.458
493445.062	1891.575
493445.088	1882.784
493445.114	1895.238
493445.117	1884.982
493445.132	1896.703
493445.139	1880.586
493445.160	1860.806
493445.174	1858.608
493445.183	1852.015
493445.208	1864.469
493445.243	1885.714
493445.243	1880.586
493445.251	1894.505
493445.283	1879.854
493445.284	1889.377
493445.309	1876.190
493445.335	1892.308
493445.358	1878.388
493445.360	1889.377
493445.362	1882.784
493445.377	1852.015
493445.385	1859.341
493445.413	1880.586
493445.442	1871.795
493445.443	1890.110
493445.469	1882.784
493445.482	1890.843
493445.495	1872.527
493445.499	1875.458
493445.524	1868.865
493445.525	1884.982
493445.555	1869.597
493445.557	1884.249
493445.588	1869.597
493445.597	1888.645
493445.610	1876.190
493445.624	1882.784
493445.642	1873.260
493445.655	1881.319
493445.683	1873.260
493445.684	1886.447
493445.713	1881.319
493445.725	1894.505
493445.735	1874.725
493445.745	1876.190
493445.773	1865.934
493445.803	1882.784
493445.804	1873.993
493445.822	1890.843
493445.823	1883.516
493445.848	1895.971
493445.857	1879.854
493445.882	1893.773
493445.883	1884.982
493445.912	1895.971
493445.938	1880.586
493445.939	1893.773
493445.964	1874.725
493445.965	1887.179
493445.984	1875.458
493446.014	1887.912
493446.015	1871.062
493446.040	1884.982
493446.053	1869.597
493446.069	1884.249
493446.078	1874.725
493446.093	1880.586
493446.118	1866.667
493446.119	1882.784
493446.148	1879.854
493446.149	1893.040
493446.174	1884.249
493446.188	1857.875
493446.210	1867.399
493446.215	1887.912
493446.239	1881.319
493446.253	1890.110
493446.279	1883.516
493446.280	1891.575
493446.295	1883.516
493446.323	1862.271
493446.335	1863.736
493446.344	1876.923
493446.395	1869.597
493446.397	1878.388
493446.414	1866.667
493446.415	1887.179
493446.419	1882.051
493446.440	1890.843
493446.454	1882.784
493446.478	1879.854
493446.479	1871.795
493446.515	1880.586
493446.537	1871.795
493446.538	1885.714
493446.548	1874.725
493446.579	1875.458
493446.581	1879.854
493446.589	1854.945
493446.620	1855.678
493446.622	1877.656
493446.650	1876.923
493446.652	1892.308
493446.678	1873.260
493446.679	1886.447
493446.723	1881.319
493446.724	1894.505
493446.750	1874.725
493446.752	1891.575
493446.772	1873.260
493446.773	1890.110
493446.790	1882.784
493446.816	1895.971
493446.834	1884.982
493446.860	1896.703
493446.862	1875.458
493446.887	1857.875
493446.888	1868.132
493446.907	1884.249
493446.919	1869.597
493446.944	1884.982
493446.947	1874.725
493446.974	1882.051
493446.998	1883.516
493446.999	1890.110
493447.028	1871.795
493447.029	1884.982
493447.052	1869.597
493447.062	1884.982
493447.093	1873.993
493447.119	1890.110
493447.120	1873.260
493447.135	1890.843
493447.138	1876.190
493447.154	1887.179
493447.172	1885.714
493447.184	1892.308
493447.212	1882.784
493447.213	1895.971
493447.239	1879.854
493447.264	1889.377
493447.265	1887.179
493447.292	1892.308
493447.293	1877.656
493447.313	1888.645
493447.342	1880.586
493447.359	1890.110
493447.360	1876.923
493447.377	1887.179
493447.390	1876.190
493447.408	1887.179
493447.422	1876.190
493447.447	1885.714
493447.475	1885.714
493447.477	1896.703
493447.490	1890.110
493447.502	1893.040
493447.527	1873.993
493447.537	1890.843
493447.552	1882.051
493447.577	1894.505
493447.578	1879.121
493447.603	1887.912
493447.610	1876.190
493447.624	1876.923
493447.642	1865.934
493447.652	1882.784
493447.703	1883.516
493447.704	1895.238
493447.717	1879.121
493447.718	1888.645
493447.737	1876.923
493447.760	1870.330
493447.762	1867.399
493447.797	1882.784
493447.798	1873.260
493447.824	1885.714
493447.858	1885.714
493447.859	1886.447
493447.884	1885.714
493447.885	1895.971
493447.893	1875.458
493447.905	1871.062
493447.933	1868.132
493447.934	1887.179
493447.959	1880.586
493447.973	1889.377
493447.997	1877.656
493447.998	1877.656
493448.024	1870.330
493448.049	1889.377
493448.050	1876.190
493448.058	1869.597
493448.087	1866.667
493448.103	1887.179
493448.109	1871.062
493448.131	1873.993
493448.159	1865.201
493448.179	1886.447
493448.181	1870.330
493448.182	1884.982
493448.208	1874.725
493448.214	1887.179
493448.233	1885.714
493448.252	1873.993
493448.277	1865.201
493448.278	1886.447
493448.303	1881.319
493448.313	1890.110
493448.339	1872.527
493448.344	1885.714
493448.368	1879.854
493448.379	1889.377
493448.404	1881.319
493448.405	1895.238
493448.429	1879.854
493448.437	1877.656
493448.462	1871.062
493448.468	1889.377
493448.499	1871.795
493448.526	1885.714
493448.527	1870.330
493448.552	1885.714
493448.553	1874.725
493448.574	1890.843
493448.575	1882.051
493448.591	1878.388
493448.609	1872.527
493448.634	1884.982
493448.660	1881.319
493448.662	1895.238
493448.679	1885.714
493448.681	1885.714
493448.705	1881.319
493448.724	1878.388
493448.753	1871.795
493448.754	1885.714
493448.777	1875.458
493448.792	1887.912
493448.808	1876.190
493448.820	1880.586
493448.841	1876.923
493448.842	1876.923
493448.873	1871.795
493448.874	1884.982
493448.888	1874.725
493448.908	1879.854
493448.918	1873.260
493448.942	1874.725
493448.952	1880.586
493448.983	1873.260
493448.984	1879.854
493449.009	1890.110
493449.029	1877.656
493449.042	1887.912
493449.047	1880.586
493449.069	1884.982
493449.079	1873.993
493449.107	1887.179
493449.133	1880.586
493449.134	1893.040
493449.161	1883.516
493449.174	1890.843
493449.175	1877.656
493449.190	1871.795
493449.203	1879.121
493449.228	1882.051
493449.247	1884.249
493449.248	1890.843
493449.268	1882.784
493449.278	1874.725
493449.292	1881.319
493449.317	1893.773
493449.343	1890.110
493449.344	1899.634
493449.369	1887.179
493449.382	1896.703
493449.390	1880.586
493449.418	1878.388
493449.427	1876.923
493449.442	1887.179
493449.467	1886.447
493449.468	1892.308
493449.493	1893.773
493449.504	1895.971
493449.518	1890.110
493449.534	1876.923
493449.548	1880.586
493449.574	1894.505
493449.575	1894.505
493449.603	1896.703
493449.609	1886.447
493449.629	1893.040
493449.639	1883.516
493449.664	1884.249
493449.672	1875.458
493449.688	1876.190
493449.718	1875.458
493449.719	1886.447
493449.733	1885.714
493449.770	1893.040
493449.772	1884.249
493449.799	1890.110
493449.800	1882.784
493449.827	1872.527
493449.828	1884.249
493449.849	1890.110
493449.863	1893.040
493449.881	1894.505
493449.884	1884.249
493449.907	1886.447
493449.941	1879.854
493449.942	1889.377
493449.955	1888.645
493449.981	1881.319
493449.990	1879.121
493450.002	1877.656
493450.018	1881.319
493450.048	1873.260
493450.049	1874.725
493450.069	1870.330
493450.087	1877.656
493450.103	1887.179
493450.109	1885.714
493450.135	1885.714
493450.142	1879.854
493450.167	1890.110
493450.193	1882.784
493450.194	1885.714
493450.205	1886.447
493450.215	1874.725
493450.237	1881.319
493450.247	1873.260
493450.265	1879.121
493450.292	1887.179
493450.293	1890.843
493450.319	1898.168
493450.335	1895.971
493450.344	1892.308
493450.370	1879.121
493450.372	1888.645
493450.385	1887.179
493450.415	1897.436
493450.440	1881.319
493450.442	1888.645
493450.464	1886.447
493450.465	1896.703
493450.492	1885.714
493450.522	1892.308
493450.547	1879.121
493450.548	1889.377
493450.550	1882.784
493450.560	1890.110
493450.584	1887.179
493450.585	1897.436
493450.615	1891.575
493450.639	1894.505
493450.640	1888.645
493450.667	1893.773
493450.674	1884.249
493450.684	1884.249
493450.708	1885.714
493450.715	1891.575
493450.742	1887.912
493450.745	1896.703
493450.768	1891.575
493450.785	1883.516
493450.794	1884.982
493450.843	1891.575
493450.844	1883.516
493450.845	1896.703
493450.857	1885.714
493450.882	1891.575
493450.900	1883.516
493450.907	1891.575
493450.931	1883.516
493450.940	1895.238
493450.957	1890.110
493450.974	1898.901
493451.000	1891.575
493451.024	1894.505
493451.025	1884.982
493451.057	1896.703
493451.058	1886.447
493451.078	1896.703
493451.079	1885.714
493451.113	1896.703
493451.114	1890.110
493451.139	1871.062
493451.140	1878.388
493451.161	1888.645
493451.179	1882.051
493451.180	1895.238
493451.214	1885.714
493451.215	1892.308
493451.240	1888.645
493451.242	1893.773
493451.269	1890.110
493451.278	1893.773
493451.302	1884.982
493451.313	1892.308
493451.342	1893.040
493451.343	1895.971
493451.370	1890.110
493451.372	1894.505
493451.385	1894.505
493451.409	1873.260
493451.439	1880.586
493451.440	1888.645
493451.476	1881.319
493451.477	1890.110
493451.498	1887.912
493451.507	1893.040
493451.518	1889.377
493451.529	1886.447
493451.554	1886.447
493451.555	1896.703
493451.597	1890.843
493451.616	1898.168
493451.617	1892.308
493451.632	1894.505
493451.640	1894.505
493451.664	1895.971
493451.698	1891.575
493451.699	1889.377
493451.726	1892.308
493451.751	1894.505
