Timestamp	PPG	2023-07-21 14:28:56.584	fs=64.0
262452.810	1389.011
262452.842	1390.476
262452.843	1393.407
262452.865	1394.872
262452.866	1396.337
262452.900	1395.604
262452.910	1395.604
262452.920	1395.604
262452.944	1396.337
262452.951	1394.139
262452.965	1394.139
262453.000	1391.941
262453.001	1390.476
262453.026	1391.209
262453.028	1389.744
262453.049	1389.744
262453.059	1390.476
262453.084	1391.941
262453.098	1394.139
262453.109	1398.535
262453.134	1405.128
262453.135	1410.989
262453.160	1416.850
262453.179	1419.048
262453.188	1416.117
262453.208	1410.256
262453.217	1402.930
262453.250	1396.337
262453.251	1389.744
262453.281	1386.813
262453.282	1383.883
262453.300	1383.883
262453.314	1383.883
262453.326	1386.081
262453.352	1388.278
262453.383	1389.744
262453.384	1391.941
262453.390	1392.674
262453.414	1393.407
262453.425	1394.139
262453.442	1394.872
262453.454	1394.872
262453.480	1395.604
262453.481	1394.139
262453.506	1393.407
262453.520	1391.941
262453.528	1391.209
262453.551	1390.476
262453.552	1390.476
262453.583	1389.744
262453.608	1389.744
262453.609	1389.744
262453.631	1389.744
262453.640	1390.476
262453.664	1393.407
262453.680	1397.802
262453.685	1404.396
262453.716	1410.989
262453.717	1415.385
262453.735	1416.850
262453.751	1414.652
262453.765	1408.791
262453.793	1400.000
262453.799	1393.407
262453.818	1387.546
262453.843	1382.418
262453.844	1380.220
262453.855	1380.952
262453.874	1382.418
262453.900	1384.615
262453.930	1386.813
262453.931	1389.011
262453.956	1390.476
262453.958	1391.941
262453.973	1394.872
262453.988	1394.872
262454.006	1394.872
262454.016	1394.139
262454.025	1392.674
262454.050	1391.941
262454.080	1391.209
262454.081	1390.476
262454.100	1391.209
262454.115	1390.476
262454.133	1390.476
262454.141	1389.744
262454.160	1389.011
262454.170	1389.011
262454.200	1390.476
262454.201	1391.941
262454.216	1398.535
262454.240	1404.396
262454.253	1409.524
262454.259	1413.919
262454.283	1413.919
262454.313	1411.722
262454.326	1405.128
262454.333	1397.802
262454.341	1391.941
262454.366	1386.081
262454.373	1383.150
262454.398	1381.685
262454.425	1380.952
262454.426	1382.418
262454.444	1384.615
262454.456	1386.813
262454.468	1389.011
262454.483	1391.209
262454.496	1393.407
262454.521	1394.139
262454.546	1394.139
262454.571	1394.872
262454.572	1394.872
262454.589	1393.407
262454.598	1391.941
262454.613	1390.476
262454.628	1391.209
262454.644	1389.744
262454.669	1389.011
262454.679	1388.278
262454.686	1387.546
262454.714	1387.546
262454.715	1387.546
262454.741	1389.744
262454.749	1395.604
262454.760	1402.930
262454.790	1409.524
262454.801	1413.919
262454.814	1415.385
262454.839	1412.454
262454.844	1405.861
262454.869	1398.535
262454.880	1393.407
262454.905	1388.278
262454.906	1385.348
262454.925	1383.883
262454.933	1383.150
262454.954	1383.150
262454.968	1384.615
262454.984	1386.813
262454.999	1388.278
262455.024	1389.744
262455.034	1392.674
262455.050	1394.872
262455.056	1394.872
262455.081	1394.139
262455.106	1392.674
262455.108	1389.744
262455.136	1389.744
262455.137	1386.813
262455.159	1386.813
262455.173	1385.348
262455.205	1386.081
262455.206	1386.081
262455.215	1388.278
262455.255	1388.278
262455.271	1388.278
262455.272	1389.011
262455.283	1389.744
262455.306	1391.941
262455.308	1396.337
262455.333	1402.198
262455.344	1408.059
262455.371	1413.187
262455.389	1413.919
262455.390	1410.989
262455.411	1406.593
262455.421	1400.000
262455.440	1394.139
262455.453	1388.278
262455.465	1384.615
262455.494	1382.418
262455.495	1382.418
262455.520	1382.418
262455.528	1383.883
262455.551	1384.615
262455.552	1386.081
262455.606	1387.546
262455.608	1390.476
262455.623	1391.941
262455.629	1393.407
262455.640	1396.337
262455.664	1397.070
262455.679	1396.337
262455.688	1394.872
262455.730	1392.674
262455.731	1391.209
262455.738	1389.744
262455.748	1387.546
262455.764	1385.348
262455.788	1385.348
262455.803	1385.348
262455.813	1386.813
262455.846	1389.011
262455.848	1390.476
262455.873	1392.674
262455.874	1396.337
262455.889	1400.733
262455.914	1405.861
262455.923	1410.256
262455.936	1412.454
262455.970	1412.454
262455.971	1409.524
262455.985	1405.861
262456.000	1399.267
262456.015	1394.872
262456.026	1389.744
262456.056	1386.081
262456.058	1385.348
262456.088	1384.615
262456.095	1385.348
262456.108	1386.813
262456.128	1386.813
262456.138	1387.546
262456.161	1390.476
262456.180	1391.209
262456.205	1392.674
262456.206	1392.674
262456.218	1393.407
262456.240	1393.407
262456.248	1393.407
262456.271	1393.407
262456.289	1394.139
262456.296	1392.674
262456.326	1392.674
262456.327	1391.209
262456.343	1390.476
262456.363	1389.744
262456.377	1388.278
262456.389	1389.011
262456.414	1387.546
262456.439	1387.546
262456.440	1387.546
262456.454	1390.476
262456.479	1393.407
262456.491	1400.000
262456.492	1406.593
262456.519	1412.454
262456.534	1415.385
262456.559	1413.919
262456.560	1410.989
262456.596	1404.396
262456.597	1397.070
262456.611	1390.476
262456.621	1386.081
262456.649	1382.418
262456.680	1380.952
262456.688	1380.952
262456.689	1382.418
262456.715	1384.615
262456.716	1386.081
262456.745	1386.813
262456.746	1389.011
262456.760	1391.209
262456.788	1392.674
262456.804	1393.407
262456.810	1394.139
262456.834	1393.407
262456.845	1393.407
262456.870	1391.941
262456.871	1391.209
262456.904	1390.476
262456.905	1389.744
262456.920	1389.011
262456.938	1389.744
262456.964	1389.744
262456.971	1390.476
262456.986	1389.744
262456.995	1389.744
262457.030	1389.744
262457.031	1390.476
262457.046	1393.407
262457.058	1398.535
262457.083	1404.396
262457.114	1409.524
262457.115	1411.722
262457.140	1410.989
262457.142	1406.593
262457.170	1400.733
262457.175	1394.872
262457.188	1389.011
262457.198	1383.883
262457.223	1381.685
262457.239	1380.952
262457.271	1380.952
262457.275	1382.418
262457.286	1385.348
262457.294	1386.813
262457.318	1389.744
262457.319	1391.209
262457.343	1394.139
262457.353	1394.872
262457.379	1394.872
262457.398	1394.139
262457.411	1392.674
262457.421	1391.941
262457.446	1391.209
262457.448	1389.744
262457.463	1388.278
262457.496	1386.081
262457.515	1386.813
262457.516	1387.546
262457.526	1387.546
262457.553	1387.546
262457.554	1388.278
262457.579	1389.011
262457.590	1391.941
262457.620	1396.337
262457.621	1402.930
262457.644	1407.326
262457.654	1411.722
262457.670	1411.722
262457.695	1409.524
262457.696	1403.663
262457.721	1397.802
262457.751	1391.209
262457.753	1385.348
262457.778	1382.418
262457.779	1379.487
262457.794	1379.487
262457.811	1380.952
262457.825	1383.150
262457.861	1385.348
262457.862	1386.813
262457.871	1388.278
262457.897	1389.744
262457.910	1390.476
262457.921	1391.941
262457.940	1391.941
262457.950	1392.674
262457.978	1392.674
262457.983	1391.941
262458.018	1391.941
262458.019	1391.209
262458.034	1390.476
262458.050	1389.011
262458.056	1389.011
262458.085	1388.278
262458.104	1389.011
262458.110	1389.744
262458.121	1390.476
262458.146	1388.278
262458.153	1388.278
262458.175	1389.744
262458.185	1394.139
262458.216	1400.000
262458.217	1407.326
262458.245	1411.722
262458.246	1413.187
262458.261	1410.989
262458.288	1406.593
262458.289	1399.267
262458.314	1393.407
262458.338	1389.011
262458.343	1384.615
262458.354	1384.615
262458.368	1384.615
262458.400	1386.081
262458.414	1386.813
262458.421	1387.546
262458.453	1388.278
262458.454	1389.744
262458.468	1391.941
262458.493	1394.872
262458.504	1397.070
262458.520	1397.802
262458.526	1398.535
262458.554	1397.070
262458.555	1395.604
262458.576	1392.674
262458.603	1391.941
262458.610	1389.011
262458.619	1389.011
262458.646	1387.546
262458.648	1386.813
262458.679	1387.546
262458.693	1387.546
262458.700	1386.813
262458.724	1387.546
262458.740	1390.476
262458.756	1396.337
262458.758	1403.663
262458.794	1412.454
262458.810	1418.315
262458.816	1420.513
262458.835	1418.315
262458.841	1412.454
262458.866	1405.128
262458.869	1397.070
262458.895	1390.476
262458.923	1386.813
262458.926	1384.615
262458.933	1384.615
262458.959	1385.348
262458.963	1386.813
262458.983	1388.278
262459.008	1391.209
262459.041	1393.407
262459.042	1394.872
262459.068	1395.604
262459.069	1396.337
262459.086	1397.070
262459.088	1397.070
262459.113	1396.337
262459.120	1394.872
262459.150	1392.674
262459.169	1391.209
262459.184	1391.941
262459.190	1391.209
262459.201	1391.941
262459.226	1392.674
262459.234	1391.209
262459.251	1391.209
262459.276	1391.209
262459.277	1391.209
262459.289	1394.139
262459.319	1399.267
262459.320	1406.593
262459.345	1413.187
262459.355	1417.582
262459.369	1418.315
262459.394	1416.117
262459.409	1411.722
262459.423	1405.128
262459.434	1398.535
262459.458	1392.674
262459.459	1388.278
262459.484	1384.615
262459.510	1384.615
262459.511	1384.615
262459.534	1385.348
262459.549	1386.813
262459.561	1389.744
262459.586	1391.209
262459.600	1393.407
262459.634	1395.604
262459.635	1396.337
262459.640	1397.802
262459.650	1397.802
262459.684	1396.337
262459.696	1393.407
262459.706	1391.941
262459.716	1391.209
262459.750	1390.476
262459.751	1389.744
262459.758	1389.744
262459.781	1389.744
262459.793	1390.476
262459.814	1391.941
262459.823	1392.674
262459.848	1394.139
262459.874	1396.337
262459.875	1401.465
262459.893	1407.326
262459.918	1412.454
262459.924	1413.919
262459.949	1413.187
262459.950	1407.326
262459.975	1402.198
262459.994	1397.070
262459.995	1393.407
262460.014	1389.011
262460.030	1386.813
262460.048	1385.348
262460.058	1386.081
262460.078	1386.813
262460.103	1389.011
262460.110	1390.476
262460.124	1392.674
262460.143	1394.872
262460.166	1397.802
262460.179	1397.802
262460.194	1398.535
262460.219	1397.802
262460.220	1397.070
262460.226	1396.337
262460.253	1394.872
262460.261	1393.407
262460.280	1391.941
262460.294	1390.476
262460.324	1389.744
262460.325	1389.011
262460.350	1390.476
262460.351	1390.476
262460.373	1392.674
262460.399	1396.337
262460.400	1401.465
262460.425	1407.326
262460.450	1411.722
262460.451	1413.919
262460.470	1413.187
262460.484	1410.256
262460.509	1405.128
262460.514	1397.802
262460.534	1393.407
262460.548	1389.011
262460.583	1387.546
262460.584	1387.546
262460.603	1389.011
262460.608	1389.744
262460.633	1391.209
262460.639	1391.941
262460.670	1394.139
262460.671	1394.872
262460.708	1394.872
262460.709	1394.872
262460.719	1394.139
262460.729	1393.407
262460.748	1392.674
262460.761	1391.941
262460.784	1392.674
262460.813	1392.674
262460.821	1393.407
262460.823	1392.674
262460.843	1392.674
262460.868	1392.674
262460.869	1393.407
262460.895	1393.407
262460.931	1396.337
262460.933	1400.000
262460.968	1405.128
262460.969	1409.524
262460.979	1413.919
262460.980	1414.652
262461.009	1413.919
262461.015	1410.256
262461.040	1405.861
262461.059	1397.802
262461.063	1392.674
262461.081	1388.278
262461.089	1386.813
262461.116	1386.081
262461.123	1386.081
262461.141	1387.546
262461.166	1390.476
262461.175	1391.941
262461.191	1393.407
262461.199	1394.872
262461.224	1397.070
262461.225	1397.802
262461.257	1398.535
262461.258	1397.802
262461.290	1396.337
262461.311	1395.604
262461.323	1395.604
262461.333	1394.139
262461.346	1394.139
262461.370	1392.674
262461.400	1392.674
262461.401	1391.209
262461.416	1391.941
262461.417	1391.941
262461.435	1393.407
262461.454	1397.070
262461.464	1403.663
262461.484	1410.256
262461.513	1417.582
262461.514	1420.513
262461.539	1421.978
262461.546	1418.315
262461.558	1413.187
262461.591	1407.326
262461.630	1402.198
262461.631	1397.070
262461.649	1394.872
262461.650	1391.941
262461.674	1391.209
262461.675	1391.209
262461.693	1391.209
262461.700	1391.209
262461.730	1392.674
262461.756	1392.674
262461.758	1394.139
262461.764	1394.139
262461.789	1396.337
262461.799	1396.337
262461.811	1397.802
262461.821	1398.535
262461.846	1400.000
262461.874	1398.535
262461.881	1397.802
262461.891	1396.337
262461.901	1394.872
262461.921	1392.674
262461.931	1393.407
262461.958	1392.674
262461.965	1394.139
262461.996	1394.872
262461.997	1397.802
262462.016	1402.930
262462.025	1410.256
262462.055	1416.850
262462.056	1421.245
262462.079	1421.245
262462.113	1419.780
262462.114	1413.919
262462.124	1408.059
262462.139	1402.930
262462.169	1399.267
262462.180	1395.604
262462.188	1393.407
262462.201	1391.209
262462.233	1390.476
262462.258	1389.744
262462.259	1389.744
262462.284	1389.744
262462.285	1391.209
262462.301	1392.674
262462.313	1394.872
262462.323	1397.070
262462.348	1399.267
262462.361	1398.535
262462.371	1398.535
262462.396	1397.802
262462.410	1397.802
262462.426	1394.872
262462.458	1394.872
262462.459	1391.941
262462.475	1391.209
262462.483	1391.209
262462.496	1391.941
262462.521	1391.941
262462.523	1392.674
262462.548	1393.407
262462.556	1396.337
262462.581	1401.465
262462.589	1410.256
262462.609	1416.850
262462.634	1419.780
262462.639	1419.780
262462.664	1416.850
262462.665	1409.524
262462.694	1402.930
262462.695	1395.604
262462.720	1390.476
262462.733	1388.278
262462.751	1386.813
262462.763	1387.546
262462.788	1386.813
262462.789	1387.546
262462.823	1389.744
262462.824	1391.209
262462.849	1394.139
262462.874	1395.604
262462.875	1397.070
262462.893	1397.070
262462.921	1397.070
262462.922	1396.337
262462.948	1395.604
262462.949	1393.407
262462.964	1391.941
262462.990	1391.941
262463.005	1392.674
262463.018	1391.941
262463.051	1392.674
262463.063	1393.407
262463.065	1393.407
262463.079	1391.941
262463.088	1391.209
262463.114	1393.407
262463.121	1399.267
262463.145	1405.861
262463.170	1412.454
262463.186	1416.850
262463.189	1419.780
262463.213	1416.850
262463.214	1410.256
262463.246	1402.198
262463.250	1394.872
262463.260	1388.278
262463.290	1384.615
262463.291	1383.150
262463.310	1383.150
262463.336	1383.150
262463.343	1384.615
262463.374	1386.081
262463.375	1388.278
262463.400	1390.476
262463.421	1393.407
262463.423	1394.139
262463.431	1394.872
262463.455	1393.407
262463.463	1394.139
262463.488	1393.407
262463.519	1393.407
262463.520	1391.941
262463.545	1390.476
262463.546	1389.744
262463.571	1389.011
262463.578	1388.278
262463.603	1389.011
262463.606	1389.011
262463.634	1391.209
262463.656	1393.407
262463.658	1397.802
262463.669	1403.663
262463.698	1410.256
262463.699	1416.117
262463.720	1420.513
262463.729	1419.048
262463.763	1413.187
262463.764	1405.128
262463.779	1397.802
262463.804	1391.209
262463.811	1386.813
262463.836	1383.150
262463.838	1382.418
262463.879	1383.883
262463.880	1384.615
262463.891	1385.348
262463.904	1388.278
262463.923	1388.278
262463.936	1391.209
262463.954	1392.674
262463.965	1394.139
262464.003	1394.139
262464.004	1394.139
262464.014	1394.139
262464.036	1394.139
262464.047	1392.674
262464.061	1392.674
262464.078	1390.476
262464.114	1390.476
262464.115	1389.011
262464.134	1388.278
262464.159	1387.546
262464.160	1387.546
262464.175	1388.278
262464.190	1389.744
262464.206	1392.674
262464.235	1398.535
262464.236	1405.861
262464.251	1413.187
262464.261	1419.048
262464.286	1419.048
262464.288	1416.117
262464.314	1410.989
262464.328	1404.396
262464.359	1397.070
262464.360	1391.209
262464.366	1387.546
262464.393	1385.348
262464.416	1386.081
262464.417	1385.348
262464.443	1386.081
262464.471	1386.081
262464.473	1387.546
262464.491	1389.011
262464.496	1391.209
262464.524	1392.674
262464.525	1394.139
262464.550	1393.407
262464.556	1394.872
262464.595	1394.872
262464.596	1395.604
262464.611	1394.139
262464.629	1392.674
262464.640	1391.941
262464.665	1391.941
262464.676	1390.476
262464.711	1389.744
262464.713	1389.744
262464.716	1389.744
262464.741	1389.744
262464.755	1390.476
262464.756	1390.476
262464.786	1394.139
262464.813	1399.267
262464.814	1408.059
262464.839	1413.919
262464.840	1416.850
262464.861	1416.117
262464.870	1413.187
262464.895	1407.326
262464.915	1400.000
262464.944	1392.674
262464.945	1387.546
262464.951	1383.883
262464.961	1383.883
262464.986	1383.883
262465.008	1385.348
262465.014	1386.813
262465.038	1388.278
262465.065	1389.744
262465.071	1389.744
262465.079	1390.476
262465.088	1391.941
262465.113	1393.407
262465.119	1394.872
262465.144	1394.872
262465.177	1395.604
262465.195	1393.407
262465.196	1391.941
262465.197	1389.744
262465.218	1389.011
262465.230	1386.813
262465.255	1387.546
262465.256	1387.546
262465.281	1389.744
262465.307	1390.476
262465.318	1390.476
262465.331	1389.744
262465.346	1391.209
262465.351	1393.407
262465.368	1400.000
262465.394	1407.326
262465.419	1412.454
262465.420	1415.385
262465.454	1414.652
262465.455	1410.256
262465.478	1404.396
262465.486	1397.070
262465.510	1391.209
262465.511	1386.813
262465.536	1383.883
262465.545	1383.150
262465.559	1383.150
262465.581	1383.150
262465.599	1383.883
262465.609	1386.081
262465.634	1388.278
262465.635	1389.744
262465.660	1392.674
262465.679	1394.139
262465.695	1395.604
262465.706	1395.604
262465.723	1397.070
262465.736	1394.872
262465.746	1393.407
262465.776	1391.941
262465.778	1391.941
262465.804	1390.476
262465.811	1389.744
262465.836	1388.278
262465.838	1389.011
262465.866	1388.278
262465.868	1389.011
262465.893	1389.744
262465.914	1391.209
262465.923	1392.674
262465.931	1397.070
262465.956	1402.930
262465.968	1408.791
262466.003	1413.187
262466.004	1414.652
262466.020	1410.989
262466.040	1405.861
262466.047	1399.267
262466.091	1392.674
262466.093	1385.348
262466.096	1381.685
262466.125	1380.220
262466.137	1381.685
262466.138	1382.418
262466.151	1383.883
262466.181	1386.081
262466.183	1389.011
262466.198	1390.476
262466.216	1392.674
262466.241	1393.407
262466.256	1394.872
262466.258	1394.872
262466.284	1394.139
262466.299	1391.941
262466.309	1389.744
262466.328	1387.546
262466.353	1386.813
262466.369	1386.813
262466.370	1387.546
262466.391	1387.546
262466.400	1386.813
262466.425	1387.546
262466.435	1388.278
262466.460	1389.011
262466.485	1389.744
262466.486	1391.209
262466.493	1394.872
262466.519	1400.000
262466.528	1407.326
262466.550	1412.454
262466.554	1414.652
262466.579	1411.722
262466.605	1406.593
262466.606	1400.000
262466.623	1394.139
262466.646	1388.278
262466.660	1386.813
262466.665	1384.615
262466.691	1383.883
262466.725	1383.150
262466.726	1383.883
262466.751	1383.883
262466.753	1386.081
262466.770	1388.278
262466.785	1389.744
262466.794	1390.476
262466.825	1392.674
262466.841	1392.674
262466.843	1392.674
262466.850	1391.209
262466.869	1390.476
262466.894	1389.744
262466.909	1389.011
262466.919	1389.011
262466.963	1389.011
262466.964	1388.278
262466.969	1389.011
262466.983	1388.278
262467.010	1389.011
262467.016	1388.278
262467.025	1389.011
262467.051	1389.011
262467.054	1390.476
262467.078	1391.941
262467.098	1395.604
262467.108	1400.000
262467.141	1408.059
262467.143	1413.187
262467.158	1415.385
262467.184	1413.919
262467.201	1409.524
262467.203	1402.198
262467.216	1395.604
262467.239	1389.011
262467.253	1384.615
262467.261	1382.418
262467.289	1383.150
262467.315	1383.150
262467.318	1384.615
262467.324	1386.813
262467.351	1389.744
262467.353	1391.209
262467.374	1391.941
262467.398	1391.941
262467.423	1392.674
262467.424	1391.941
262467.441	1391.941
262467.465	1391.941
262467.466	1393.407
262467.484	1392.674
262467.493	1392.674
262467.518	1391.941
262467.543	1391.941
262467.544	1390.476
262467.558	1391.209
262467.583	1391.209
262467.596	1390.476
262467.610	1389.744
262467.624	1389.744
262467.651	1390.476
262467.673	1390.476
262467.675	1390.476
262467.683	1391.209
262467.708	1394.139
262467.718	1399.267
262467.743	1405.861
262467.749	1411.722
262467.783	1414.652
262467.784	1415.385
262467.804	1411.722
262467.813	1406.593
262467.826	1398.535
262467.843	1391.209
262467.863	1386.081
262467.871	1383.883
262467.900	1381.685
262467.906	1381.685
262467.925	1383.150
262467.934	1385.348
262467.953	1387.546
262467.963	1389.744
262467.990	1391.209
262468.015	1392.674
262468.016	1394.139
262468.045	1395.604
262468.053	1396.337
262468.064	1395.604
262468.083	1394.139
262468.096	1392.674
262468.110	1391.941
262468.135	1389.744
262468.136	1387.546
262468.164	1388.278
262468.181	1388.278
262468.185	1389.011
262468.199	1389.744
262468.218	1390.476
262468.246	1389.011
262468.265	1389.744
262468.266	1389.744
262468.289	1389.011
262468.299	1389.011
262468.313	1391.941
262468.325	1396.337
262468.343	1403.663
262468.375	1410.256
262468.376	1415.385
262468.390	1416.850
262468.424	1414.652
262468.425	1408.791
262468.443	1402.930
262468.456	1394.872
262468.463	1389.744
262468.488	1386.081
262468.504	1383.883
262468.515	1383.150
262468.548	1383.883
262468.549	1384.615
262468.559	1385.348
262468.584	1386.813
262468.615	1388.278
262468.616	1389.011
262468.649	1391.941
262468.650	1393.407
262468.660	1394.139
262468.680	1394.139
262468.685	1394.139
262468.724	1393.407
262468.725	1392.674
262468.739	1390.476
262468.749	1389.744
262468.761	1389.744
262468.786	1389.744
262468.791	1389.011
262468.815	1390.476
262468.848	1390.476
262468.849	1391.209
262468.861	1391.209
262468.884	1391.209
262468.893	1391.941
262468.908	1393.407
262468.923	1396.337
262468.931	1402.198
262468.958	1407.326
262468.971	1411.722
262468.985	1413.919
262468.999	1413.187
262469.016	1408.791
262469.028	1403.663
262469.051	1397.070
262469.053	1391.209
262469.091	1386.081
262469.108	1383.883
262469.120	1383.883
262469.129	1385.348
262469.143	1386.813
262469.168	1388.278
262469.169	1389.011
262469.196	1390.476
262469.198	1390.476
262469.221	1393.407
262469.238	1394.139
262469.248	1396.337
262469.281	1395.604
262469.282	1395.604
262469.313	1394.872
262469.314	1394.139
262469.334	1393.407
262469.343	1391.941
262469.356	1391.209
262469.381	1390.476
262469.391	1389.744
262469.401	1390.476
262469.433	1389.744
262469.434	1389.744
262469.456	1389.744
262469.471	1391.209
262469.484	1391.209
262469.505	1392.674
262469.518	1394.872
262469.557	1400.733
262469.558	1407.326
262469.560	1413.187
262469.579	1416.117
262469.590	1416.117
262469.614	1413.187
262469.624	1408.059
262469.658	1401.465
262469.659	1395.604
262469.678	1390.476
262469.695	1387.546
262469.696	1385.348
262469.729	1385.348
262469.730	1385.348
262469.755	1386.081
262469.756	1387.546
262469.789	1387.546
262469.790	1389.011
262469.812	1390.476
262469.831	1392.674
262469.846	1394.139
262469.853	1395.604
262469.869	1396.337
262469.895	1394.872
262469.920	1393.407
262469.921	1392.674
262469.946	1391.209
262469.948	1390.476
262469.961	1390.476
262469.985	1391.209
262469.999	1390.476
262470.024	1389.011
262470.025	1389.011
262470.055	1389.011
262470.063	1389.744
262470.086	1389.744
262470.088	1391.941
262470.114	1395.604
262470.145	1401.465
262470.146	1409.524
262470.153	1416.117
262470.166	1419.780
262470.188	1417.582
262470.198	1412.454
262470.223	1405.861
262470.254	1399.267
262470.255	1392.674
262470.271	1387.546
262470.281	1386.081
262470.291	1384.615
262470.316	1385.348
262470.324	1386.081
262470.348	1387.546
262470.355	1388.278
262470.380	1389.011
262470.391	1389.011
262470.400	1390.476
262470.430	1391.209
262470.440	1391.209
262470.454	1393.407
262470.465	1394.139
262470.494	1392.674
262470.495	1391.209
262470.516	1389.744
262470.526	1389.011
262470.566	1389.011
262470.569	1389.744
262470.583	1389.744
262470.589	1390.476
262470.614	1389.744
262470.621	1389.744
262470.644	1389.744
262470.650	1389.011
262470.682	1389.744
262470.683	1390.476
262470.711	1393.407
262470.738	1399.267
262470.739	1405.861
262470.754	1413.919
262470.760	1418.315
262470.784	1418.315
262470.795	1414.652
262470.820	1408.791
262470.821	1400.733
262470.854	1393.407
262470.855	1388.278
262470.884	1384.615
262470.889	1383.150
262470.910	1383.150
262470.923	1383.883
262470.933	1385.348
262470.963	1388.278
262470.964	1390.476
262470.980	1391.941
262471.010	1392.674
262471.011	1392.674
262471.044	1393.407
262471.045	1393.407
262471.058	1392.674
262471.086	1391.941
262471.098	1391.941
262471.111	1391.209
262471.135	1390.476
262471.136	1391.209
262471.169	1391.209
262471.203	1390.476
262471.204	1391.209
262471.229	1391.209
262471.230	1391.209
262471.244	1390.476
262471.245	1389.744
262471.260	1390.476
262471.279	1389.744
262471.304	1389.744
262471.334	1390.476
262471.335	1392.674
262471.345	1397.070
262471.369	1405.128
262471.386	1413.187
262471.401	1417.582
262471.415	1419.780
262471.443	1417.582
262471.444	1411.722
262471.451	1403.663
262471.475	1396.337
262471.485	1389.744
262471.495	1386.081
262471.514	1383.883
262471.528	1383.150
262471.559	1384.615
262471.560	1385.348
262471.579	1386.813
262471.589	1389.011
262471.619	1390.476
262471.620	1391.941
262471.651	1392.674
262471.680	1393.407
262471.690	1394.139
262471.692	1394.139
262471.708	1394.139
262471.716	1393.407
262471.743	1392.674
262471.745	1391.941
262471.761	1390.476
262471.798	1390.476
262471.799	1389.744
262471.829	1391.209
262471.830	1390.476
262471.853	1390.476
262471.866	1390.476
262471.877	1391.209
262471.905	1391.941
262471.923	1391.209
262471.924	1390.476
262471.941	1391.941
262471.958	1393.407
262471.965	1398.535
262471.990	1405.861
262471.991	1413.919
262472.020	1419.048
262472.043	1419.780
262472.044	1416.850
262472.059	1411.722
262472.081	1402.930
262472.089	1394.139
262472.114	1388.278
262472.124	1385.348
262472.159	1383.883
262472.160	1383.883
262472.183	1384.615
262472.184	1386.081
262472.205	1386.813
262472.215	1389.011
262472.240	1389.744
262472.273	1391.209
262472.274	1393.407
262472.281	1394.872
262472.295	1395.604
262472.310	1397.070
262472.335	1397.070
262472.344	1396.337
262472.353	1395.604
262472.384	1394.872
262472.395	1394.139
262472.414	1392.674
262472.420	1391.941
262472.441	1391.941
262472.451	1391.209
262472.483	1391.209
262472.484	1391.209
262472.509	1391.941
262472.523	1391.941
262472.524	1392.674
262472.551	1391.941
262472.560	1392.674
262472.584	1394.139
262472.616	1398.535
262472.618	1405.128
262472.633	1412.454
262472.645	1418.315
262472.661	1420.513
262472.666	1417.582
262472.685	1412.454
262472.713	1403.663
262472.714	1397.070
262472.748	1391.209
262472.753	1387.546
262472.766	1386.081
262472.781	1386.081
262472.791	1386.081
262472.816	1387.546
262472.833	1389.011
262472.868	1391.209
262472.869	1391.941
262472.881	1394.139
262472.891	1395.604
262472.901	1397.802
262472.926	1397.802
262472.928	1397.070
262472.959	1395.604
262472.960	1394.139
262472.985	1392.674
262472.994	1391.941
262473.019	1391.209
262473.038	1391.941
262473.048	1391.209
262473.058	1392.674
262473.093	1393.407
262473.119	1394.139
262473.120	1394.139
262473.143	1393.407
262473.154	1393.407
262473.168	1393.407
262473.171	1395.604
262473.190	1400.000
262473.215	1406.593
262473.216	1413.919
262473.228	1419.048
262473.253	1421.978
262473.260	1420.513
262473.285	1415.385
262473.300	1408.059
262473.325	1400.733
262473.342	1393.407
262473.343	1389.011
262473.361	1386.081
262473.384	1386.081
262473.389	1386.081
262473.411	1387.546
262473.426	1388.278
262473.451	1389.744
262473.453	1391.941
262473.464	1393.407
262473.488	1395.604
262473.508	1397.070
262473.516	1397.070
262473.528	1397.802
262473.561	1396.337
262473.562	1395.604
262473.576	1394.872
262473.598	1394.139
262473.612	1394.139
262473.633	1392.674
262473.640	1393.407
262473.659	1394.139
262473.685	1394.139
262473.686	1394.872
262473.708	1394.872
262473.721	1394.872
262473.750	1394.872
262473.770	1395.604
262473.771	1396.337
262473.798	1400.000
262473.799	1405.861
262473.818	1413.187
262473.823	1417.582
262473.847	1419.780
262473.858	1417.582
262473.881	1413.919
262473.894	1406.593
262473.924	1399.267
262473.925	1392.674
262473.938	1389.011
262473.963	1387.546
262473.964	1387.546
262473.990	1386.813
262474.003	1387.546
262474.016	1388.278
262474.041	1390.476
262474.043	1392.674
262474.054	1394.139
262474.079	1395.604
262474.090	1397.070
262474.114	1397.070
262474.119	1397.802
262474.144	1397.070
262474.164	1397.070
262474.165	1395.604
262474.194	1394.872
262474.208	1394.139
262474.218	1393.407
262474.243	1391.941
262474.244	1391.209
262474.279	1391.209
262474.281	1390.476
262474.301	1390.476
262474.315	1390.476
262474.341	1391.941
262474.343	1395.604
262474.368	1403.663
262474.394	1410.256
262474.395	1417.582
262474.425	1422.711
262474.446	1423.443
262474.450	1420.513
262474.451	1413.919
262474.475	1406.593
262474.489	1399.267
262474.514	1393.407
262474.515	1389.011
262474.535	1387.546
262474.545	1387.546
262474.560	1386.813
262474.581	1389.011
262474.601	1390.476
262474.630	1391.941
262474.631	1392.674
262474.646	1393.407
262474.660	1394.872
262474.665	1395.604
262474.693	1396.337
262474.709	1395.604
262474.718	1394.872
262474.745	1394.872
262474.747	1394.872
262474.760	1394.139
262474.785	1393.407
262474.804	1392.674
262474.814	1392.674
262474.839	1391.209
262474.866	1389.744
262474.868	1390.476
262474.884	1390.476
262474.891	1390.476
262474.905	1393.407
262474.923	1398.535
262474.936	1407.326
262474.954	1414.652
262474.960	1421.245
262474.986	1423.443
262475.009	1420.513
262475.010	1416.117
262475.035	1408.059
262475.055	1400.000
262475.058	1392.674
262475.083	1387.546
262475.109	1383.883
262475.110	1383.883
262475.118	1384.615
262475.140	1385.348
262475.150	1387.546
262475.168	1388.278
262475.186	1389.744
262475.215	1390.476
262475.233	1391.941
262475.239	1394.872
262475.249	1394.872
262475.264	1394.872
262475.279	1395.604
262475.308	1394.139
262475.309	1394.139
262475.339	1393.407
262475.340	1391.941
262475.351	1391.209
262475.385	1389.011
262475.386	1388.278
262475.410	1387.546
262475.420	1388.278
262475.455	1389.011
262475.456	1389.744
262475.469	1390.476
262475.489	1393.407
262475.505	1398.535
262475.515	1405.861
262475.541	1413.187
262475.548	1418.315
262475.575	1420.513
262475.591	1417.582
262475.593	1409.524
262475.609	1402.930
262475.629	1395.604
262475.646	1388.278
262475.680	1383.150
262475.681	1380.952
262475.706	1380.952
262475.708	1382.418
262475.728	1383.883
262475.738	1386.081
262475.749	1387.546
262475.759	1388.278
262475.784	1389.011
262475.815	1389.744
262475.816	1391.941
262475.830	1392.674
262475.845	1393.407
262475.861	1393.407
262475.879	1393.407
262475.893	1393.407
262475.924	1391.941
262475.925	1391.209
262475.943	1389.744
262475.953	1387.546
262475.973	1386.813
262475.983	1387.546
262476.007	1387.546
262476.019	1388.278
262476.048	1388.278
262476.049	1388.278
262476.063	1389.011
262476.078	1390.476
262476.096	1394.139
262476.109	1399.267
262476.128	1406.593
262476.141	1414.652
262476.164	1418.315
262476.165	1418.315
262476.186	1413.187
262476.200	1407.326
262476.225	1397.802
262476.230	1391.209
262476.256	1386.081
262476.258	1382.418
262476.286	1380.952
262476.325	1381.685
262476.326	1384.615
262476.333	1386.081
262476.343	1387.546
262476.364	1388.278
262476.396	1389.011
262476.398	1389.744
262476.414	1389.011
262476.423	1390.476
262476.441	1391.209
262476.453	1391.941
262476.473	1393.407
262476.488	1393.407
262476.520	1392.674
262476.521	1392.674
262476.534	1391.209
262476.548	1390.476
262476.556	1389.011
262476.580	1387.546
262476.608	1386.813
262476.614	1387.546
262476.653	1388.278
262476.655	1389.011
262476.670	1389.011
262476.671	1389.011
262476.689	1389.011
262476.708	1389.744
262476.719	1390.476
262476.729	1393.407
262476.756	1399.267
262476.758	1408.059
262476.783	1415.385
262476.808	1420.513
262476.809	1419.780
262476.839	1415.385
262476.840	1408.791
262476.873	1401.465
262476.886	1392.674
262476.888	1386.813
262476.916	1383.150
262476.925	1380.952
262476.954	1380.220
262476.983	1381.685
262476.984	1383.150
262477.009	1385.348
262477.010	1386.081
262477.019	1386.813
262477.030	1389.011
262477.049	1390.476
262477.056	1391.941
262477.076	1394.139
262477.113	1394.139
262477.114	1394.139
262477.130	1393.407
262477.143	1392.674
262477.154	1392.674
262477.166	1393.407
262477.191	1392.674
262477.221	1391.941
262477.223	1390.476
262477.236	1389.744
262477.251	1389.744
262477.263	1389.744
262477.281	1389.011
262477.291	1389.011
262477.311	1388.278
262477.345	1388.278
262477.346	1388.278
262477.361	1389.744
262477.383	1391.941
262477.399	1395.604
262477.414	1401.465
262477.423	1408.791
262477.465	1414.652
262477.466	1417.582
262477.473	1416.117
262477.484	1412.454
262477.504	1405.861
262477.514	1398.535
262477.539	1391.209
262477.544	1386.081
262477.558	1381.685
262477.589	1381.685
262477.615	1380.220
262477.638	1382.418
262477.640	1383.150
262477.641	1386.813
262477.656	1388.278
262477.668	1390.476
262477.699	1392.674
262477.715	1394.139
262477.716	1394.872
262477.729	1395.604
262477.754	1394.872
262477.755	1394.139
262477.780	1392.674
262477.811	1390.476
262477.834	1389.744
262477.836	1390.476
262477.845	1389.011
262477.871	1389.011
262477.890	1389.011
262477.895	1389.011
262477.911	1389.744
262477.938	1389.744
262477.939	1390.476
262477.953	1391.209
262477.963	1392.674
262477.986	1394.872
262478.005	1397.802
262478.020	1404.396
262478.054	1410.256
262478.055	1416.117
262478.065	1418.315
262478.080	1416.850
262478.101	1410.989
262478.110	1405.128
262478.118	1397.802
262478.141	1390.476
262478.179	1385.348
262478.180	1382.418
262478.188	1382.418
262478.201	1383.150
262478.230	1385.348
262478.231	1386.081
262478.256	1386.813
262478.258	1389.744
262478.286	1391.209
262478.288	1392.674
262478.313	1393.407
262478.323	1395.604
262478.343	1395.604
262478.356	1395.604
262478.381	1394.872
262478.410	1394.139
262478.411	1392.674
262478.419	1393.407
262478.445	1392.674
262478.451	1391.209
262478.473	1390.476
262478.483	1389.744
262478.504	1389.011
262478.534	1389.744
262478.538	1390.476
262478.548	1391.209
262478.561	1391.209
262478.581	1392.674
262478.588	1395.604
262478.613	1401.465
262478.619	1408.791
262478.646	1416.117
262478.666	1417.582
262478.674	1418.315
262478.691	1414.652
262478.700	1408.791
262478.719	1400.733
262478.733	1393.407
262478.770	1386.813
262478.771	1384.615
262478.778	1383.150
262478.793	1383.150
262478.819	1383.883
262478.820	1386.081
262478.845	1386.081
262478.854	1389.744
262478.888	1390.476
262478.913	1393.407
262478.928	1394.872
262478.929	1396.337
262478.946	1396.337
262478.948	1397.070
262478.976	1395.604
262479.004	1394.139
262479.011	1391.941
262479.013	1391.209
262479.044	1389.011
262479.045	1388.278
262479.058	1387.546
262479.076	1388.278
262479.119	1388.278
262479.120	1389.011
262479.133	1389.011
262479.141	1391.209
262479.158	1392.674
262479.181	1392.674
262479.183	1391.941
262479.209	1392.674
262479.236	1394.139
262479.237	1399.267
262479.249	1405.128
262479.261	1412.454
262479.283	1417.582
262479.293	1421.245
262479.321	1418.315
262479.333	1413.919
262479.359	1405.128
262479.359	1397.802
262479.383	1390.476
262479.391	1386.813
262479.400	1384.615
262479.424	1384.615
262479.435	1384.615
262479.460	1386.081
262479.461	1387.546
262479.484	1389.011
262479.514	1389.744
262479.533	1391.209
262479.536	1392.674
262479.551	1393.407
262479.553	1394.139
262479.584	1396.337
262479.585	1396.337
262479.609	1397.070
262479.619	1396.337
262479.644	1394.872
262479.651	1392.674
262479.666	1391.209
262479.695	1389.011
262479.727	1389.744
262479.728	1388.278
262479.740	1389.011
262479.754	1389.011
262479.763	1391.209
262479.783	1391.209
262479.813	1391.941
262479.814	1391.941
262479.839	1391.941
262479.840	1392.674
262479.861	1396.337
262479.876	1400.733
262479.895	1409.524
262479.904	1415.385
262479.929	1420.513
262479.955	1419.048
262479.956	1414.652
262479.966	1406.593
262479.992	1398.535
262480.005	1390.476
262480.015	1386.813
262480.035	1383.883
262480.068	1382.418
262480.069	1383.150
262480.078	1385.348
262480.090	1388.278
262480.115	1389.744
262480.116	1391.209
262480.145	1392.674
262480.176	1393.407
262480.178	1394.872
262480.203	1396.337
262480.204	1397.070
262480.224	1396.337
262480.225	1395.604
262480.250	1395.604
262480.259	1394.872
262480.293	1393.407
262480.309	1392.674
262480.311	1391.941
262480.335	1391.209
262480.341	1389.011
262480.368	1389.011
262480.383	1389.011
262480.390	1389.011
262480.418	1389.011
262480.429	1389.744
262480.446	1390.476
262480.451	1391.941
262480.475	1391.941
262480.484	1392.674
262480.508	1395.604
262480.536	1400.733
262480.551	1407.326
262480.553	1413.919
262480.559	1419.048
262480.575	1419.048
262480.597	1415.385
262480.608	1408.791
262480.633	1402.198
262480.660	1394.872
262480.661	1387.546
262480.668	1383.150
262480.689	1380.952
262480.708	1380.220
262480.722	1380.220
262480.730	1383.150
262480.756	1386.081
262480.758	1389.744
262480.786	1391.941
262480.818	1395.604
262480.819	1396.337
262480.833	1397.802
262480.843	1396.337
262480.874	1396.337
262480.903	1394.872
262480.904	1394.139
262480.911	1391.941
262480.921	1391.209
262480.944	1389.744
262480.953	1389.744
262480.966	1389.744
262481.011	1390.476
262481.024	1390.476
262481.025	1391.209
262481.036	1391.209
262481.046	1390.476
262481.058	1390.476
262481.083	1391.209
262481.085	1394.139
262481.133	1398.535
262481.140	1404.396
262481.141	1410.989
262481.168	1415.385
262481.169	1414.652
262481.193	1412.454
262481.203	1407.326
262481.216	1400.733
262481.250	1394.139
262481.251	1388.278
262481.259	1384.615
262481.286	1383.150
262481.301	1383.150
262481.310	1383.883
262481.331	1385.348
262481.369	1386.081
262481.370	1389.011
262481.384	1391.209
262481.406	1393.407
262481.408	1394.872
262481.441	1396.337
262481.454	1396.337
262481.455	1396.337
262481.481	1394.872
262481.483	1393.407
262481.490	1391.941
262481.515	1391.941
262481.529	1391.209
262481.546	1389.744
262481.555	1388.278
262481.580	1387.546
262481.605	1387.546
262481.606	1389.011
262481.633	1389.011
262481.641	1389.744
262481.666	1389.011
262481.668	1390.476
262481.695	1392.674
262481.733	1397.802
262481.734	1403.663
262481.735	1411.722
262481.751	1417.582
262481.765	1420.513
262481.779	1419.048
262481.810	1413.919
262481.811	1405.128
262481.838	1397.070
262481.839	1389.011
262481.864	1384.615
262481.879	1382.418
262481.889	1383.150
262481.916	1384.615
262481.918	1386.813
262481.943	1388.278
262481.963	1390.476
262481.970	1392.674
262481.985	1396.337
262482.004	1397.070
262482.014	1397.070
262482.039	1395.604
262482.048	1394.872
262482.073	1393.407
262482.100	1393.407
262482.103	1392.674
262482.126	1391.941
262482.128	1391.209
262482.145	1391.209
262482.150	1390.476
262482.168	1389.744
262482.193	1389.011
262482.194	1389.744
262482.216	1389.011
262482.231	1391.209
262482.249	1390.476
262482.261	1391.941
262482.288	1391.941
262482.289	1391.941
262482.314	1392.674
262482.325	1394.872
262482.349	1400.733
262482.355	1407.326
262482.381	1414.652
262482.396	1419.048
262482.398	1419.048
262482.430	1416.850
262482.431	1410.989
262482.454	1403.663
262482.464	1396.337
262482.489	1391.941
262482.499	1386.813
262482.524	1384.615
262482.525	1384.615
262482.550	1385.348
262482.558	1386.081
262482.578	1388.278
262482.588	1388.278
262482.606	1389.011
262482.623	1389.744
262482.655	1391.209
262482.656	1392.674
262482.671	1394.139
262482.688	1395.604
262482.723	1395.604
262482.724	1395.604
262482.736	1395.604
262482.754	1394.872
262482.790	1394.872
262482.791	1391.941
262482.793	1391.209
262482.811	1390.476
262482.825	1389.744
262482.843	1390.476
262482.856	1391.209
262482.874	1390.476
262482.899	1391.209
262482.900	1391.209
262482.921	1391.941
262482.933	1391.941
262482.956	1392.674
262482.972	1396.337
262482.983	1402.930
262483.015	1410.989
262483.016	1417.582
262483.034	1421.245
262483.045	1419.780
262483.059	1414.652
262483.083	1407.326
262483.102	1399.267
262483.106	1393.407
262483.139	1387.546
262483.151	1384.615
262483.173	1382.418
262483.174	1383.883
262483.189	1386.081
262483.205	1386.813
262483.219	1388.278
262483.229	1390.476
262483.263	1391.941
262483.264	1394.139
262483.281	1394.872
262483.290	1396.337
262483.315	1396.337
262483.321	1396.337
262483.349	1395.604
262483.376	1394.872
262483.403	1392.674
262483.413	1392.674
262483.414	1389.744
262483.421	1390.476
262483.441	1389.744
262483.454	1389.744
262483.464	1391.209
262483.493	1391.209
262483.498	1391.209
262483.521	1391.209
262483.523	1389.744
262483.555	1390.476
262483.556	1390.476
262483.581	1392.674
262483.609	1395.604
262483.616	1402.198
262483.630	1409.524
262483.641	1417.582
262483.653	1420.513
262483.676	1419.780
262483.688	1415.385
262483.698	1409.524
262483.731	1400.733
262483.733	1393.407
262483.748	1387.546
262483.759	1383.883
262483.784	1382.418
262483.799	1382.418
262483.813	1383.150
262483.848	1384.615
262483.859	1386.081
262483.860	1389.011
262483.872	1391.941
262483.904	1393.407
262483.905	1394.139
262483.930	1396.337
262483.931	1396.337
262483.965	1396.337
262484.005	1396.337
262484.006	1396.337
262484.014	1394.139
262484.015	1393.407
262484.039	1391.941
262484.046	1390.476
262484.071	1389.011
262484.073	1388.278
262484.096	1386.081
262484.114	1387.546
262484.123	1388.278
262484.141	1389.744
262484.154	1389.744
262484.168	1392.674
262484.196	1394.872
262484.198	1401.465
262484.219	1407.326
262484.230	1413.919
262484.255	1418.315
262484.256	1418.315
262484.289	1415.385
262484.320	1408.059
262484.322	1400.000
262484.329	1392.674
262484.347	1387.546
262484.366	1383.150
262484.378	1380.952
262484.391	1381.685
262484.421	1383.883
262484.423	1385.348
262484.446	1388.278
262484.448	1389.744
262484.476	1390.476
262484.481	1392.674
262484.501	1393.407
262484.513	1395.604
262484.538	1394.872
262484.560	1394.872
262484.561	1394.872
262484.576	1394.872
262484.594	1394.139
262484.613	1392.674
262484.646	1391.209
262484.648	1390.476
262484.680	1389.011
262484.681	1389.011
262484.688	1388.278
262484.701	1389.011
262484.721	1387.546
262484.745	1389.011
262484.748	1390.476
262484.763	1391.209
262484.789	1391.941
262484.804	1395.604
262484.811	1400.733
262484.836	1408.791
262484.838	1415.385
262484.864	1419.780
262484.879	1420.513
262484.913	1418.315
262484.914	1412.454
262484.930	1406.593
262484.946	1397.070
262484.960	1389.744
262484.971	1384.615
262484.985	1382.418
262485.014	1381.685
262485.015	1382.418
262485.038	1384.615
262485.048	1386.813
262485.061	1390.476
262485.085	1391.941
262485.086	1394.139
262485.119	1395.604
262485.120	1396.337
262485.145	1396.337
262485.146	1395.604
262485.166	1394.872
262485.192	1394.139
262485.206	1393.407
262485.220	1392.674
262485.254	1392.674
262485.255	1391.209
262485.280	1390.476
262485.281	1390.476
262485.306	1391.209
262485.320	1389.744
262485.326	1390.476
262485.343	1390.476
262485.385	1390.476
262485.386	1390.476
262485.389	1390.476
262485.411	1391.209
262485.421	1392.674
262485.435	1397.070
262485.453	1403.663
262485.461	1412.454
262485.498	1417.582
262485.504	1419.780
262485.514	1417.582
262485.539	1413.187
262485.544	1406.593
262485.559	1399.267
262485.576	1392.674
262485.619	1387.546
262485.626	1384.615
262485.626	1383.883
262485.638	1385.348
262485.663	1386.813
262485.664	1389.744
262485.689	1390.476
262485.734	1392.674
262485.735	1394.139
262485.740	1396.337
262485.748	1397.070
262485.761	1396.337
262485.781	1396.337
262485.795	1395.604
262485.815	1395.604
262485.824	1393.407
262485.855	1392.674
262485.863	1392.674
262485.883	1391.209
262485.889	1391.209
262485.914	1391.209
262485.936	1391.209
262485.938	1391.941
262485.963	1392.674
262485.964	1391.941
262485.988	1392.674
262485.993	1391.209
262486.016	1391.209
262486.028	1391.941
262486.055	1391.941
262486.056	1391.941
262486.091	1397.070
262486.098	1403.663
262486.110	1411.722
262486.129	1419.048
262486.148	1422.711
262486.158	1420.513
262486.166	1416.117
262486.191	1409.524
262486.218	1401.465
262486.219	1394.139
262486.229	1387.546
262486.253	1382.418
262486.259	1380.220
262486.288	1380.952
262486.319	1383.150
262486.320	1386.081
262486.339	1388.278
262486.341	1390.476
262486.368	1393.407
262486.379	1395.604
262486.389	1397.070
262486.411	1398.535
262486.420	1399.267
262486.445	1397.070
262486.454	1396.337
262486.465	1395.604
262486.489	1394.139
262486.495	1393.407
262486.524	1392.674
262486.525	1391.209
262486.559	1391.209
262486.560	1389.744
262486.585	1390.476
262486.603	1390.476
262486.604	1391.209
262486.629	1391.941
262486.638	1392.674
262486.675	1394.872
262486.676	1396.337
262486.686	1398.535
262486.706	1404.396
262486.724	1410.989
262486.738	1416.117
262486.751	1419.048
262486.760	1417.582
262486.791	1412.454
262486.808	1405.128
262486.809	1397.070
262486.834	1391.209
262486.845	1387.546
262486.851	1384.615
262486.878	1383.883
262486.888	1384.615
262486.919	1385.348
262486.920	1386.081
262486.941	1386.813
262486.953	1389.011
262486.963	1391.209
262486.989	1394.139
262486.995	1395.604
262487.028	1397.070
262487.029	1397.070
262487.044	1397.802
262487.056	1397.070
262487.084	1395.604
262487.098	1392.674
262487.111	1390.476
262487.129	1387.546
262487.154	1386.813
262487.155	1387.546
262487.170	1389.011
262487.200	1390.476
262487.213	1391.941
262487.214	1393.407
262487.239	1397.070
262487.268	1400.000
262487.269	1402.930
262487.284	1406.593
262487.309	1410.256
262487.310	1415.385
262487.339	1419.780
262487.340	1420.513
262487.365	1419.048
262487.391	1414.652
262487.393	1408.791
262487.408	1401.465
262487.423	1394.139
262487.441	1390.476
262487.451	1388.278
262487.466	1387.546
262487.506	1386.813
262487.508	1386.813
262487.518	1385.348
262487.536	1384.615
262487.545	1385.348
262487.556	1386.813
262487.581	1388.278
262487.616	1390.476
262487.618	1391.941
262487.631	1393.407
262487.642	1394.872
262487.660	1397.070
262487.669	1396.337
262487.684	1396.337
262487.709	1395.604
262487.719	1394.872
262487.744	1396.337
262487.745	1394.872
262487.763	1394.139
262487.781	1394.139
262487.790	1393.407
262487.826	1391.209
262487.860	1390.476
262487.861	1391.209
262487.879	1396.337
262487.881	1401.465
262487.886	1407.326
262487.901	1413.919
262487.928	1415.385
262487.929	1412.454
262487.954	1408.059
262487.981	1401.465
262487.985	1394.139
262487.998	1390.476
262488.021	1387.546
262488.023	1385.348
262488.048	1384.615
262488.059	1383.883
262488.088	1383.883
262488.089	1385.348
262488.113	1386.813
262488.119	1387.546
262488.143	1389.011
262488.153	1389.744
262488.166	1391.209
262488.198	1391.209
262488.223	1391.209
262488.224	1391.209
262488.233	1390.476
262488.250	1391.941
262488.259	1393.407
262488.284	1393.407
262488.304	1393.407
262488.310	1394.872
262488.335	1394.139
262488.346	1394.872
262488.370	1393.407
262488.380	1391.941
262488.394	1391.209
262488.403	1391.941
262488.419	1393.407
262488.448	1398.535
262488.453	1405.128
262488.483	1413.187
262488.484	1419.048
262488.499	1421.245
262488.524	1418.315
262488.538	1410.989
262488.544	1401.465
262488.569	1392.674
262488.578	1385.348
262488.584	1380.220
262488.606	1379.487
262488.631	1379.487
262488.639	1383.150
262488.664	1386.813
262488.664	1390.476
262488.693	1391.941
262488.709	1394.872
262488.721	1396.337
262488.741	1396.337
262488.746	1396.337
262488.761	1395.604
262488.780	1394.872
262488.810	1393.407
262488.816	1391.941
262488.830	1390.476
262488.848	1387.546
262488.851	1385.348
262488.885	1384.615
262488.886	1385.348
262488.918	1386.081
262488.919	1386.813
262488.933	1386.813
262488.951	1387.546
262488.963	1387.546
262488.986	1390.476
262489.005	1397.070
262489.015	1405.861
262489.044	1416.850
262489.045	1424.176
262489.056	1428.571
262489.081	1429.304
262489.129	1424.908
262489.131	1416.850
262489.133	1405.861
262489.166	1394.139
262489.167	1384.615
262489.173	1378.022
262489.188	1374.359
262489.201	1372.894
262489.221	1372.161
262489.245	1374.359
262489.250	1376.557
262489.281	1380.220
262489.283	1383.150
262489.291	1388.278
262489.315	1391.209
262489.325	1394.872
262489.343	1399.267
262489.353	1400.733
262489.402	1402.930
262489.403	1402.930
262489.406	1401.465
262489.425	1398.535
262489.438	1394.872
262489.455	1391.941
262489.476	1389.011
262489.481	1387.546
262489.514	1387.546
262489.515	1388.278
262489.523	1391.209
262489.548	1397.070
262489.559	1403.663
262489.581	1409.524
262489.590	1413.187
262489.615	1413.919
262489.616	1409.524
262489.641	1402.198
262489.650	1395.604
262489.664	1387.546
262489.698	1381.685
262489.699	1378.755
262489.724	1378.022
262489.750	1379.487
262489.751	1382.418
262489.776	1384.615
262489.801	1386.813
262489.803	1389.744
262489.809	1392.674
262489.833	1394.872
262489.843	1396.337
262489.874	1397.802
262489.881	1395.604
262489.891	1394.872
262489.908	1394.872
262489.924	1393.407
262489.942	1391.209
262489.955	1389.011
262489.964	1387.546
262489.989	1386.813
262489.990	1386.813
262490.015	1388.278
262490.024	1388.278
262490.045	1390.476
262490.059	1394.872
262490.085	1401.465
262490.110	1408.059
262490.111	1414.652
262490.128	1417.582
262490.138	1414.652
262490.163	1408.791
262490.164	1401.465
262490.190	1393.407
262490.215	1385.348
262490.216	1380.220
262490.235	1378.022
262490.249	1378.755
262490.259	1380.220
262490.283	1382.418
262490.303	1385.348
262490.314	1387.546
262490.339	1390.476
262490.340	1391.209
262490.366	1393.407
262490.406	1395.604
262490.408	1396.337
262490.416	1395.604
262490.418	1394.872
262490.470	1391.209
262490.471	1389.744
262490.474	1386.081
262490.489	1385.348
262490.490	1383.883
262490.513	1383.883
262490.529	1383.883
262490.553	1383.883
262490.554	1383.883
262490.579	1386.081
262490.599	1389.744
262490.609	1393.407
262490.619	1400.733
262490.643	1408.059
262490.654	1413.919
262490.664	1416.850
262490.690	1414.652
262490.709	1409.524
262490.721	1402.198
262490.729	1396.337
262490.753	1390.476
262490.759	1386.813
262490.786	1385.348
262490.815	1384.615
262490.817	1384.615
262490.830	1385.348
262490.846	1387.546
262490.865	1390.476
262490.880	1391.941
262490.893	1394.139
262490.918	1394.872
262490.940	1395.604
262490.943	1395.604
262490.954	1396.337
262490.968	1396.337
262490.991	1394.872
262490.993	1391.941
262491.024	1389.744
262491.025	1387.546
262491.050	1386.081
262491.078	1384.615
262491.079	1384.615
262491.096	1386.081
262491.106	1387.546
262491.132	1390.476
262491.140	1397.070
262491.171	1404.396
262491.173	1413.187
262491.185	1419.048
262491.213	1419.780
262491.219	1415.385
262491.228	1408.059
262491.249	1397.802
262491.261	1388.278
262491.295	1380.220
262491.296	1377.289
262491.314	1378.022
262491.330	1381.685
262491.343	1386.081
262491.355	1391.941
262491.368	1396.337
262491.396	1399.267
262491.413	1401.465
262491.420	1402.930
262491.439	1400.733
262491.454	1400.000
262491.464	1396.337
262491.486	1393.407
262491.495	1388.278
262491.520	1386.081
262491.521	1381.685
262491.546	1379.487
262491.556	1378.755
262491.581	1380.220
262491.596	1383.150
262491.609	1387.546
262491.640	1391.209
262491.641	1395.604
262491.670	1402.930
262491.671	1409.524
262491.696	1415.385
262491.710	1421.978
262491.716	1424.176
262491.742	1424.176
262491.769	1418.315
262491.770	1409.524
262491.783	1400.000
262491.811	1391.209
262491.813	1382.418
262491.829	1378.022
262491.844	1375.824
262491.880	1376.557
262491.890	1378.022
262491.891	1380.952
262491.910	1384.615
262491.921	1389.744
262491.930	1394.139
262491.955	1397.802
262492.004	1401.465
262492.005	1404.396
262492.013	1404.396
262492.014	1405.861
262492.026	1404.396
262492.045	1400.733
262492.059	1397.070
262492.083	1393.407
262492.113	1388.278
262492.114	1384.615
262492.128	1380.220
262492.138	1379.487
262492.165	1378.022
262492.166	1380.952
262492.191	1384.615
262492.229	1390.476
262492.230	1399.267
262492.245	1409.524
262492.248	1417.582
262492.261	1423.443
262492.289	1424.176
262492.290	1420.513
262492.315	1412.454
262492.343	1404.396
262492.344	1395.604
262492.369	1388.278
262492.385	1382.418
262492.386	1380.220
262492.413	1378.022
262492.420	1379.487
262492.439	1380.220
262492.470	1383.883
262492.479	1386.813
262492.480	1391.209
262492.510	1394.872
262492.511	1397.070
262492.538	1397.802
262492.544	1399.267
262492.556	1399.267
262492.585	1398.535
262492.586	1396.337
262492.608	1394.872
262492.619	1392.674
262492.643	1391.209
262492.654	1389.011
262492.669	1390.476
262492.698	1390.476
262492.711	1390.476
262492.716	1391.941
262492.731	1395.604
262492.750	1400.733
262492.760	1405.128
262492.779	1409.524
262492.821	1413.187
262492.823	1410.989
262492.840	1405.861
262492.841	1399.267
262492.866	1393.407
262492.883	1386.813
262492.894	1383.883
262492.900	1381.685
262492.934	1381.685
262492.935	1381.685
262492.960	1384.615
262492.986	1387.546
262492.988	1391.941
262493.003	1394.872
262493.013	1397.070
262493.048	1399.267
262493.049	1399.267
262493.073	1397.802
262493.074	1396.337
262493.091	1392.674
262493.115	1390.476
262493.121	1387.546
262493.141	1386.081
262493.154	1386.081
262493.179	1385.348
262493.186	1385.348
262493.211	1386.813
262493.219	1389.011
262493.229	1393.407
262493.253	1398.535
262493.263	1405.861
262493.294	1412.454
262493.303	1415.385
262493.313	1414.652
262493.321	1411.722
262493.353	1405.128
262493.366	1398.535
262493.378	1391.209
262493.410	1386.813
262493.411	1383.883
262493.425	1382.418
262493.433	1383.883
262493.454	1386.081
262493.463	1388.278
262493.488	1390.476
262493.493	1393.407
262493.534	1394.872
262493.535	1395.604
262493.543	1397.070
262493.558	1398.535
262493.586	1397.802
262493.588	1394.872
262493.613	1392.674
262493.620	1391.209
262493.654	1389.744
262493.655	1389.011
262493.669	1389.011
262493.694	1387.546
262493.725	1386.813
262493.726	1386.081
262493.739	1387.546
262493.766	1389.011
262493.768	1394.139
262493.778	1400.000
262493.800	1407.326
262493.814	1414.652
262493.834	1419.048
262493.843	1418.315
262493.868	1414.652
262493.899	1408.059
262493.899	1400.733
262493.910	1392.674
262493.926	1386.813
262493.940	1382.418
262493.950	1380.952
262493.965	1380.952
262494.003	1383.883
262494.004	1386.081
262494.019	1390.476
262494.034	1393.407
262494.045	1396.337
262494.055	1397.802
262494.084	1397.802
262494.098	1396.337
262494.123	1393.407
262494.124	1390.476
262494.135	1387.546
262494.160	1386.081
262494.161	1388.278
262494.209	1389.744
262494.210	1391.209
262494.243	1392.674
262494.244	1393.407
262494.269	1394.872
262494.270	1395.604
262494.286	1397.802
262494.304	1402.198
262494.310	1407.326
262494.335	1412.454
262494.369	1414.652
262494.370	1415.385
262494.379	1411.722
262494.394	1407.326
262494.399	1399.267
262494.425	1392.674
262494.434	1387.546
262494.459	1383.150
262494.475	1381.685
262494.486	1382.418
262494.510	1383.883
262494.511	1387.546
262494.545	1389.744
262494.546	1392.674
262494.556	1394.139
262494.591	1396.337
262494.593	1396.337
262494.604	1397.070
262494.629	1395.604
262494.640	1395.604
262494.650	1394.872
262494.675	1394.139
262494.711	1393.407
262494.713	1393.407
262494.728	1392.674
262494.729	1391.941
262494.754	1391.209
262494.759	1392.674
262494.785	1393.407
262494.801	1396.337
262494.835	1400.733
262494.836	1407.326
262494.843	1412.454
262494.869	1417.582
262494.893	1417.582
262494.894	1414.652
262494.908	1408.791
262494.918	1401.465
262494.954	1394.139
262494.955	1388.278
262494.963	1384.615
262494.988	1382.418
262494.993	1382.418
262495.017	1384.615
262495.031	1386.813
262495.060	1389.011
262495.061	1391.941
262495.076	1395.604
262495.101	1397.070
262495.109	1399.267
262495.119	1400.000
262495.145	1400.000
262495.162	1398.535
262495.186	1397.802
262495.188	1394.872
262495.199	1393.407
262495.224	1390.476
262495.225	1390.476
262495.257	1389.744
262495.258	1390.476
262495.283	1390.476
262495.308	1391.941
262495.309	1393.407
262495.333	1397.802
262495.346	1402.930
262495.361	1408.791
262495.380	1412.454
262495.391	1414.652
262495.424	1412.454
262495.425	1408.059
262495.431	1400.733
262495.455	1394.872
262495.468	1389.011
262495.481	1385.348
262495.510	1381.685
262495.511	1381.685
262495.536	1381.685
262495.561	1384.615
262495.566	1389.011
262495.575	1393.407
262495.590	1396.337
262495.606	1398.535
262495.631	1401.465
262495.661	1402.198
262495.663	1400.733
262495.664	1399.267
262495.693	1397.070
262495.710	1395.604
262495.716	1392.674
262495.741	1390.476
262495.749	1389.011
262495.777	1389.011
262495.778	1389.011
262495.799	1389.011
262495.809	1391.209
262495.836	1395.604
262495.838	1399.267
262495.865	1405.861
262495.893	1410.989
262495.894	1415.385
262495.909	1414.652
262495.924	1412.454
262495.930	1405.128
262495.951	1400.000
262495.965	1394.139
262495.983	1389.011
262496.009	1386.081
262496.010	1383.883
262496.032	1382.418
262496.046	1383.150
262496.057	1384.615
262496.078	1387.546
262496.088	1390.476
262496.118	1393.407
262496.133	1394.872
262496.166	1397.070
262496.168	1397.802
262496.178	1397.802
262496.188	1397.802
262496.199	1397.802
262496.224	1396.337
262496.225	1395.604
262496.250	1393.407
262496.256	1392.674
262496.282	1391.209
262496.290	1390.476
262496.318	1389.011
262496.334	1389.011
262496.343	1389.011
262496.368	1392.674
262496.376	1395.604
262496.390	1401.465
262496.404	1405.128
262496.424	1408.059
262496.441	1406.593
262496.450	1404.396
262496.483	1399.267
262496.494	1395.604
262496.509	1391.209
262496.523	1389.011
262496.538	1387.546
262496.548	1388.278
262496.556	1389.011
262496.601	1389.744
262496.603	1391.209
262496.608	1393.407
262496.618	1394.872
262496.639	1397.070
262496.652	1398.535
262496.666	1397.802
262496.685	1396.337
262496.714	1394.872
262496.715	1393.407
262496.741	1394.139
262496.749	1393.407
262496.759	1392.674
262496.793	1391.941
262496.833	1392.674
262496.834	1392.674
262496.851	1395.604
262496.855	1400.000
262496.865	1405.128
262496.880	1409.524
262496.896	1412.454
262496.898	1412.454
262496.923	1409.524
262496.932	1405.861
262496.965	1399.267
262496.973	1391.941
262496.996	1388.278
262497.025	1383.883
262497.033	1383.150
262497.038	1383.150
262497.048	1385.348
262497.074	1386.813
262497.075	1390.476
262497.090	1393.407
262497.115	1396.337
262497.116	1396.337
262497.148	1397.070
262497.149	1397.070
262497.166	1396.337
262497.198	1394.139
262497.206	1393.407
262497.221	1391.209
262497.238	1390.476
262497.249	1391.209
262497.259	1393.407
262497.284	1394.139
262497.315	1394.872
262497.316	1395.604
262497.333	1397.070
262497.341	1400.000
262497.366	1405.861
262497.368	1410.989
262497.395	1413.919
262497.397	1413.919
262497.423	1411.722
262497.449	1405.128
262497.479	1398.535
262497.480	1391.941
262497.483	1388.278
262497.504	1385.348
262497.518	1383.883
262497.549	1384.615
262497.550	1386.081
262497.555	1387.546
262497.580	1389.011
262497.597	1390.476
262497.606	1391.941
262497.631	1393.407
262497.640	1395.604
262497.670	1395.604
262497.671	1395.604
262497.690	1394.872
262497.705	1394.872
262497.723	1394.139
262497.730	1392.674
262497.755	1391.209
262497.756	1390.476
262497.783	1390.476
262497.800	1391.209
262497.809	1391.941
262497.834	1396.337
262497.842	1401.465
262497.865	1408.791
262497.896	1413.919
262497.897	1416.117
262497.914	1414.652
262497.921	1410.989
262497.931	1404.396
262497.959	1398.535
262497.975	1392.674
262497.989	1388.278
262498.027	1384.615
262498.028	1382.418
262498.034	1380.220
262498.044	1382.418
262498.079	1384.615
262498.080	1388.278
262498.093	1391.941
262498.113	1394.872
262498.147	1396.337
262498.148	1398.535
262498.149	1398.535
262498.174	1398.535
262498.188	1396.337
262498.196	1393.407
262498.221	1390.476
262498.228	1388.278
262498.255	1386.081
262498.256	1385.348
262498.282	1386.081
262498.291	1389.011
262498.313	1392.674
262498.325	1399.267
262498.349	1407.326
262498.375	1414.652
262498.383	1419.780
262498.390	1420.513
262498.402	1418.315
262498.428	1412.454
262498.433	1402.930
262498.458	1395.604
262498.464	1388.278
262498.495	1383.883
262498.496	1380.952
262498.517	1379.487
262498.530	1378.022
262498.548	1378.755
262498.561	1380.952
262498.585	1383.150
262498.586	1386.081
262498.615	1391.209
262498.616	1394.139
262498.642	1397.070
262498.651	1398.535
262498.665	1398.535
262498.690	1397.802
262498.720	1396.337
262498.721	1393.407
262498.756	1391.209
262498.758	1387.546
262498.770	1386.081
262498.781	1384.615
262498.790	1387.546
262498.815	1391.941
262498.842	1398.535
262498.856	1405.128
262498.863	1411.722
262498.881	1414.652
262498.889	1414.652
262498.914	1411.722
262498.919	1406.593
262498.949	1400.000
262498.950	1393.407
262498.976	1389.744
262498.983	1387.546
262499.013	1386.081
262499.014	1386.081
262499.039	1387.546
262499.040	1389.744
262499.056	1391.209
262499.088	1392.674
262499.097	1393.407
262499.104	1395.604
262499.129	1394.872
262499.138	1394.872
262499.163	1393.407
262499.164	1391.941
262499.204	1389.744
262499.205	1389.011
262499.223	1389.011
262499.239	1389.011
262499.249	1388.278
262499.259	1388.278
262499.283	1388.278
262499.320	1389.744
262499.321	1391.941
262499.329	1397.070
262499.361	1402.930
262499.363	1408.059
262499.380	1410.989
262499.387	1410.989
262499.401	1407.326
262499.429	1401.465
262499.430	1395.604
262499.454	1390.476
262499.473	1388.278
262499.486	1386.813
262499.494	1386.813
262499.519	1387.546
262499.553	1386.813
262499.554	1387.546
262499.564	1386.813
262499.579	1386.813
262499.601	1386.813
262499.606	1387.546
262499.631	1387.546
262499.639	1388.278
262499.668	1389.011
262499.669	1391.209
262499.688	1393.407
262499.698	1395.604
262499.719	1397.802
262499.729	1397.802
262499.753	1397.802
262499.763	1397.070
262499.796	1396.337
262499.798	1396.337
262499.811	1399.267
262499.826	1403.663
262499.843	1407.326
262499.854	1411.722
262499.869	1411.722
262499.898	1408.059
262499.920	1400.733
262499.921	1394.139
262499.935	1389.011
262499.950	1386.081
262499.966	1383.150
262499.993	1383.150
262499.994	1381.685
262500.019	1383.150
262500.044	1384.615
262500.045	1387.546
262500.056	1390.476
262500.075	1393.407
262500.101	1395.604
262500.106	1397.802
262500.134	1398.535
262500.152	1398.535
262500.160	1397.070
262500.175	1395.604
262500.190	1392.674
262500.199	1390.476
262500.218	1389.011
262500.229	1388.278
262500.266	1387.546
262500.269	1388.278
262500.285	1390.476
262500.300	1393.407
262500.315	1400.000
262500.331	1407.326
262500.340	1413.919
262500.365	1417.582
262500.393	1418.315
262500.394	1413.919
262500.409	1405.861
262500.419	1396.337
262500.451	1387.546
262500.453	1380.220
262500.463	1375.092
262500.494	1374.359
262500.511	1375.824
262500.513	1379.487
262500.533	1383.150
262500.550	1388.278
262500.551	1393.407
262500.576	1398.535
262500.601	1402.930
262500.629	1405.128
262500.630	1406.593
262500.658	1403.663
262500.659	1400.000
262500.671	1394.872
262500.690	1389.744
262500.705	1385.348
262500.734	1381.685
262500.735	1378.755
262500.748	1378.022
262500.760	1379.487
262500.787	1382.418
262500.803	1386.813
262500.811	1393.407
262500.854	1403.663
262500.855	1413.187
262500.861	1421.245
262500.879	1423.443
262500.891	1420.513
262500.910	1413.187
262500.919	1402.930
262500.944	1392.674
262500.973	1383.150
262500.993	1377.289
262500.994	1375.824
262500.995	1375.092
262501.025	1377.289
262501.027	1380.952
262501.052	1387.546
262501.053	1394.139
262501.094	1399.267
262501.095	1403.663
262501.104	1405.128
262501.131	1405.128
262501.138	1401.465
262501.162	1397.802
262501.166	1393.407
262501.203	1389.011
262501.218	1386.081
262501.219	1384.615
262501.231	1383.883
262501.256	1385.348
262501.282	1388.278
262501.283	1391.209
262501.298	1394.872
262501.326	1398.535
262501.328	1402.930
262501.343	1407.326
262501.354	1411.722
262501.369	1413.919
262501.398	1412.454
262501.409	1408.791
262501.419	1402.198
262501.444	1394.139
262501.455	1387.546
262501.473	1382.418
262501.486	1379.487
262501.503	1378.755
262501.513	1380.220
262501.538	1380.952
262501.563	1383.150
262501.564	1385.348
262501.576	1389.011
262501.600	1392.674
262501.608	1395.604
262501.633	1397.070
262501.639	1399.267
262501.664	1400.000
262501.691	1400.733
262501.693	1399.267
262501.694	1399.267
262501.725	1398.535
262501.737	1397.070
262501.754	1395.604
262501.760	1392.674
262501.794	1389.744
262501.808	1389.011
262501.810	1389.011
262501.835	1392.674
262501.841	1397.802
262501.868	1404.396
262501.883	1406.593
262501.891	1405.861
262501.931	1402.930
262501.956	1397.802
262501.958	1392.674
262501.959	1390.476
262501.974	1388.278
262501.991	1387.546
262501.998	1387.546
262502.036	1388.278
262502.044	1388.278
262502.050	1390.476
262502.051	1391.941
262502.084	1394.139
262502.099	1395.604
262502.106	1397.070
262502.131	1397.070
262502.159	1396.337
262502.160	1394.139
262502.168	1392.674
262502.186	1391.209
262502.218	1391.209
262502.219	1390.476
262502.244	1389.744
262502.245	1388.278
262502.275	1387.546
262502.283	1385.348
262502.302	1385.348
262502.311	1385.348
262502.337	1388.278
262502.344	1393.407
262502.356	1398.535
262502.391	1401.465
262502.393	1402.198
262502.411	1400.000
262502.421	1397.070
262502.446	1392.674
262502.455	1389.011
262502.465	1386.081
262502.500	1384.615
262502.501	1383.883
262502.515	1383.883
262502.526	1385.348
262502.553	1386.813
262502.554	1389.011
262502.576	1390.476
262502.598	1391.209
262502.624	1391.209
262502.625	1391.209
262502.636	1391.209
262502.654	1390.476
262502.679	1390.476
262502.688	1390.476
262502.704	1391.209
262502.744	1391.209
262502.745	1390.476
262502.751	1389.744
262502.759	1390.476
262502.784	1391.209
262502.805	1392.674
262502.814	1394.872
262502.837	1397.802
262502.868	1398.535
262502.869	1395.604
262502.876	1391.941
262502.894	1388.278
262502.895	1385.348
262502.924	1383.883
262502.948	1383.883
262502.949	1385.348
262502.987	1389.011
262502.988	1393.407
262503.003	1396.337
262503.017	1400.000
262503.041	1400.000
262503.041	1398.535
262503.059	1397.070
262503.093	1394.872
262503.111	1391.941
262503.113	1389.744
262503.129	1386.813
262503.138	1386.081
262503.161	1384.615
262503.190	1385.348
262503.191	1386.081
262503.218	1387.546
262503.248	1389.744
262503.252	1391.209
262503.253	1391.209
262503.264	1392.674
262503.288	1394.872
262503.300	1397.802
262503.311	1400.000
262503.340	1402.198
262503.341	1400.733
262503.364	1397.070
262503.365	1390.476
262503.409	1386.081
262503.410	1382.418
262503.423	1381.685
262503.448	1381.685
262503.449	1383.883
262503.466	1387.546
262503.484	1391.209
262503.490	1393.407
262503.515	1397.070
262503.524	1400.000
262503.545	1402.198
262503.577	1401.465
262503.578	1400.000
262503.591	1395.604
262503.613	1391.941
262503.614	1389.744
262503.639	1386.813
262503.664	1383.883
262503.692	1383.150
262503.693	1383.150
262503.714	1384.615
262503.715	1386.081
262503.738	1387.546
262503.753	1388.278
262503.768	1391.941
262503.781	1395.604
262503.815	1399.267
262503.816	1402.930
262503.843	1405.128
262503.855	1404.396
262503.861	1402.198
262503.876	1397.802
262503.893	1392.674
262503.925	1387.546
262503.926	1383.150
262503.932	1381.685
262503.953	1381.685
262503.965	1382.418
262503.983	1384.615
262504.008	1387.546
262504.015	1389.011
262504.049	1391.209
262504.050	1392.674
262504.063	1394.139
262504.083	1394.872
262504.096	1394.872
262504.110	1393.407
262504.125	1391.941
262504.166	1391.941
262504.168	1391.209
262504.177	1390.476
262504.198	1389.744
262504.209	1390.476
262504.218	1390.476
262504.244	1391.941
262504.245	1394.139
262504.276	1396.337
262504.278	1399.267
262504.303	1402.198
262504.310	1402.930
262504.334	1402.198
262504.343	1398.535
262504.368	1394.872
262504.369	1391.209
262504.398	1388.278
262504.411	1385.348
262504.425	1385.348
262504.443	1384.615
262504.452	1384.615
262504.477	1385.348
262504.503	1386.081
262504.504	1386.813
262504.529	1388.278
262504.535	1389.744
262504.549	1391.209
262504.558	1393.407
262504.581	1394.139
262504.591	1394.872
262504.634	1393.407
262504.640	1391.941
262504.641	1391.941
262504.650	1391.209
262504.673	1389.744
262504.688	1389.011
262504.699	1389.011
262504.724	1390.476
262504.725	1393.407
262504.758	1397.802
262504.759	1402.198
262504.780	1406.593
262504.794	1408.059
262504.811	1407.326
262504.823	1404.396
262504.848	1399.267
262504.881	1394.872
262504.883	1391.209
262504.893	1388.278
262504.901	1386.081
262504.923	1383.883
262504.934	1383.883
262504.963	1384.615
262504.964	1384.615
262504.990	1385.348
262504.991	1386.813
262505.014	1387.546
262505.024	1389.011
262505.054	1391.209
262505.055	1393.407
262505.085	1395.604
262505.086	1397.070
262505.124	1397.802
262505.125	1399.267
262505.151	1400.000
262505.153	1400.000
262505.177	1399.267
262505.190	1398.535
262505.225	1398.535
262505.226	1399.267
262505.238	1400.000
262505.248	1401.465
262505.258	1402.198
262505.289	1400.733
262505.290	1400.000
262505.316	1397.802
262505.347	1395.604
262505.348	1393.407
262505.358	1391.209
262505.368	1390.476
262505.391	1389.744
262505.414	1390.476
262505.415	1391.209
262505.440	1391.941
262505.470	1392.674
262505.471	1394.872
262505.480	1395.604
262505.504	1397.802
262505.514	1398.535
262505.541	1399.267
262505.543	1397.802
262505.571	1397.802
262505.573	1395.604
262505.601	1395.604
262505.608	1395.604
262505.633	1393.407
262505.640	1393.407
262505.653	1393.407
262505.674	1394.139
262505.699	1396.337
262505.707	1397.802
262505.721	1401.465
262505.748	1405.128
262505.749	1408.791
262505.774	1409.524
262505.783	1408.791
262505.817	1405.861
262505.822	1401.465
262505.832	1397.070
262505.844	1394.139
262505.854	1392.674
262505.866	1390.476
262505.891	1389.011
262505.908	1389.744
262505.936	1390.476
262505.944	1391.941
262505.955	1394.139
262505.961	1396.337
262505.986	1396.337
262506.010	1397.070
262506.011	1397.802
262506.024	1397.802
262506.049	1396.337
262506.060	1394.872
262506.079	1393.407
262506.096	1392.674
262506.110	1393.407
262506.134	1394.139
262506.135	1392.674
262506.164	1394.139
262506.187	1394.139
262506.188	1397.070
262506.198	1400.000
262506.221	1403.663
262506.240	1406.593
262506.254	1406.593
262506.283	1404.396
262506.284	1402.930
262506.305	1398.535
262506.313	1395.604
262506.326	1393.407
262506.345	1390.476
262506.364	1389.744
262506.369	1390.476
262506.395	1391.209
262506.423	1393.407
262506.424	1395.604
262506.449	1398.535
262506.450	1399.267
262506.463	1400.000
262506.481	1400.733
262506.506	1401.465
262506.535	1402.198
262506.536	1400.000
262506.547	1398.535
262506.555	1397.802
262506.580	1395.604
262506.599	1394.872
262506.608	1394.139
262506.618	1393.407
262506.648	1394.872
262506.649	1397.070
262506.676	1401.465
262506.690	1405.128
262506.710	1409.524
262506.719	1412.454
262506.729	1412.454
262506.760	1410.989
262506.761	1409.524
262506.783	1406.593
262506.792	1404.396
262506.814	1402.198
262506.820	1398.535
262506.845	1396.337
262506.855	1394.872
262506.880	1394.872
262506.889	1396.337
262506.899	1398.535
262506.919	1400.000
262506.936	1402.930
262506.956	1403.663
262506.958	1404.396
262506.986	1405.128
262507.005	1404.396
262507.011	1403.663
262507.045	1402.198
262507.047	1401.465
262507.058	1401.465
262507.083	1400.000
262507.084	1400.000
262507.118	1401.465
262507.128	1405.128
262507.138	1411.722
262507.163	1419.780
262507.177	1426.374
262507.190	1430.769
262507.225	1430.037
262507.226	1424.176
262507.249	1416.117
262507.250	1406.593
262507.268	1397.802
262507.279	1389.744
262507.294	1383.150
262507.313	1379.487
262507.326	1378.022
262507.360	1378.022
262507.361	1379.487
262507.380	1382.418
262507.394	1385.348
262507.409	1388.278
262507.419	1389.744
262507.440	1391.209
262507.446	1391.209
262507.471	1391.209
262507.481	1390.476
262507.503	1388.278
262507.516	1386.081
262507.541	1384.615
262507.541	1383.883
262507.556	1386.813
262507.585	1391.941
262507.598	1396.337
262507.608	1397.802
262507.629	1396.337
262507.643	1391.209
262507.671	1385.348
262507.698	1380.220
262507.699	1378.755
262507.725	1379.487
262507.732	1386.813
262507.747	1396.337
262507.759	1406.593
262507.761	1415.385
262507.781	1420.513
262507.791	1425.641
262507.821	1428.571
262507.823	1430.037
262507.844	1429.304
262507.854	1423.443
262507.870	1410.989
262507.890	1393.407
262507.900	1375.824
262507.925	1367.766
262507.953	1374.359
262507.954	1387.546
262507.968	1402.198
262507.986	1408.791
262508.010	1406.593
262508.011	1399.267
262508.029	1395.604
262508.054	1395.604
262508.074	1405.128
262508.076	1417.582
262508.093	1430.769
262508.110	1441.758
262508.124	1444.689
262508.140	1440.293
262508.150	1429.304
262508.181	1416.117
262508.194	1402.930
262508.205	1391.209
262508.215	1384.615
262508.228	1382.418
262508.253	1384.615
262508.260	1388.278
262508.296	1392.674
262508.328	1394.139
262508.329	1395.604
262508.354	1395.604
262508.355	1396.337
262508.372	1397.070
262508.378	1397.802
262508.403	1399.267
262508.404	1400.733
262508.429	1399.267
262508.430	1399.267
262508.459	1397.802
262508.460	1396.337
262508.485	1394.872
262508.506	1394.872
262508.538	1394.872
262508.539	1397.802
262508.543	1400.733
262508.558	1406.593
262508.583	1410.256
262508.584	1411.722
262508.609	1409.524
262508.619	1406.593
262508.650	1402.198
262508.651	1399.267
262508.675	1395.604
262508.689	1394.872
262508.713	1393.407
262508.714	1393.407
262508.744	1391.209
262508.745	1390.476
262508.770	1391.209
262508.779	1392.674
262508.800	1393.407
262508.810	1394.139
262508.835	1394.139
262508.844	1393.407
262508.861	1392.674
262508.887	1392.674
262508.888	1392.674
262508.910	1394.872
262508.925	1395.604
262508.950	1396.337
262508.951	1395.604
262508.971	1394.872
262509.003	1393.407
262509.004	1394.139
262509.018	1395.604
262509.033	1399.267
262509.049	1402.930
262509.059	1406.593
262509.084	1406.593
262509.095	1405.861
262509.128	1401.465
262509.129	1397.070
262509.150	1392.674
262509.160	1389.011
262509.177	1386.813
262509.183	1385.348
262509.209	1385.348
262509.218	1386.081
262509.243	1386.813
262509.254	1389.744
262509.255	1391.941
262509.281	1394.139
262509.293	1394.872
262509.318	1393.407
262509.319	1391.941
262509.359	1391.209
262509.360	1390.476
262509.378	1390.476
262509.394	1389.011
262509.411	1389.744
262509.421	1389.744
262509.434	1391.209
262509.460	1393.407
262509.488	1397.070
262509.489	1399.267
262509.496	1402.198
262509.520	1403.663
262509.521	1403.663
262509.547	1399.267
262509.561	1394.872
262509.599	1389.744
262509.600	1386.813
262509.625	1384.615
262509.627	1384.615
262509.644	1385.348
262509.645	1386.081
262509.671	1387.546
262509.690	1390.476
262509.715	1390.476
262509.716	1391.209
262509.737	1389.744
262509.746	1390.476
262509.761	1389.011
262509.780	1388.278
262509.800	1388.278
262509.829	1388.278
262509.840	1390.476
262509.843	1392.674
262509.869	1395.604
262509.879	1397.070
262509.903	1397.070
262509.904	1395.604
262509.925	1391.941
262509.951	1390.476
262509.953	1390.476
262509.959	1392.674
262509.991	1394.139
262510.005	1397.070
262510.015	1398.535
262510.025	1398.535
262510.068	1397.802
262510.069	1396.337
262510.077	1392.674
262510.084	1389.744
262510.109	1386.081
262510.118	1384.615
262510.143	1383.150
262510.163	1383.150
262510.189	1383.883
262510.197	1386.813
262510.209	1390.476
262510.240	1392.674
262510.241	1395.604
262510.253	1399.267
262510.259	1399.267
262510.308	1398.535
262510.320	1394.872
262510.321	1392.674
262510.334	1388.278
262510.345	1386.813
262510.372	1386.081
262510.373	1385.348
262510.398	1386.081
262510.432	1387.546
262510.433	1390.476
262510.439	1394.872
262510.453	1398.535
262510.461	1399.267
262510.485	1398.535
262510.501	1397.070
262510.518	1393.407
262510.543	1389.744
262510.544	1384.615
262510.555	1383.150
262510.580	1381.685
262510.600	1381.685
262510.608	1382.418
262510.637	1385.348
262510.638	1388.278
262510.664	1391.941
262510.673	1393.407
262510.688	1395.604
262510.713	1397.070
262510.714	1395.604
262510.743	1393.407
262510.751	1391.941
262510.776	1389.744
262510.785	1387.546
262510.791	1385.348
262510.816	1384.615
262510.834	1385.348
262510.850	1386.813
262510.882	1388.278
262510.883	1391.941
262510.908	1395.604
262510.909	1399.267
262510.923	1400.733
262510.939	1401.465
262510.949	1400.733
262510.961	1397.070
262510.987	1392.674
262511.017	1388.278
262511.018	1383.150
262511.035	1380.220
262511.044	1378.755
262511.058	1378.755
262511.083	1380.952
262511.084	1383.883
262511.109	1387.546
262511.140	1391.209
262511.141	1393.407
262511.157	1396.337
262511.167	1396.337
262511.189	1394.872
262511.199	1391.941
262511.218	1389.011
262511.252	1385.348
262511.256	1383.883
262511.269	1383.150
262511.283	1384.615
262511.289	1386.081
262511.314	1387.546
262511.330	1388.278
262511.341	1391.209
262511.369	1394.139
262511.370	1397.802
262511.391	1400.000
262511.400	1400.733
262511.425	1398.535
262511.433	1394.872
262511.458	1389.744
262511.463	1385.348
262511.488	1380.220
262511.523	1378.022
262511.524	1376.557
262511.534	1377.289
262511.544	1379.487
262511.568	1383.150
262511.578	1386.081
262511.603	1389.744
262511.604	1390.476
262511.625	1391.941
262511.640	1392.674
262511.646	1393.407
262511.673	1394.872
262511.685	1396.337
262511.714	1397.070
262511.715	1397.802
262511.737	1396.337
262511.748	1394.139
262511.760	1389.744
262511.785	1386.081
262511.786	1383.150
262511.814	1381.685
262511.839	1382.418
262511.840	1383.883
262511.864	1386.081
262511.871	1389.011
262511.897	1391.941
262511.908	1394.872
262511.924	1395.604
262511.955	1395.604
262511.965	1394.139
262511.966	1394.139
262511.985	1392.674
262512.009	1391.941
262512.018	1390.476
262512.043	1389.011
262512.053	1388.278
262512.078	1388.278
262512.079	1387.546
262512.086	1387.546
262512.112	1386.813
262512.128	1387.546
262512.153	1387.546
262512.183	1387.546
262512.208	1389.011
262512.209	1389.744
262512.210	1390.476
262512.220	1392.674
262512.237	1395.604
262512.253	1397.070
262512.259	1398.535
262512.285	1400.733
262512.315	1400.000
262512.322	1400.000
262512.334	1398.535
262512.345	1396.337
262512.363	1391.941
262512.371	1388.278
262512.398	1383.883
262512.399	1380.220
262512.426	1379.487
262512.428	1380.220
262512.456	1383.150
262512.464	1386.813
262512.488	1389.744
262512.493	1392.674
262512.520	1394.872
262512.521	1395.604
262512.546	1395.604
262512.565	1395.604
262512.576	1393.407
262512.600	1394.139
262512.613	1392.674
262512.627	1391.209
262512.639	1389.011
262512.678	1387.546
262512.683	1386.813
262512.684	1386.081
262512.709	1385.348
262512.718	1386.081
262512.747	1387.546
262512.752	1391.209
262512.762	1394.872
262512.787	1398.535
262512.813	1400.733
262512.814	1401.465
262512.831	1401.465
262512.840	1398.535
262512.865	1393.407
262512.866	1391.209
262512.903	1389.011
262512.910	1386.813
262512.920	1385.348
262512.939	1384.615
262512.951	1384.615
262512.966	1386.081
262512.996	1388.278
262513.023	1389.744
262513.024	1391.209
262513.031	1391.941
262513.046	1391.941
262513.057	1392.674
262513.080	1392.674
262513.099	1392.674
262513.109	1392.674
262513.139	1392.674
262513.140	1391.209
262513.156	1391.209
262513.166	1391.941
262513.192	1393.407
262513.206	1394.872
262513.220	1398.535
262513.229	1400.733
262513.254	1402.930
262513.266	1402.930
262513.279	1400.733
262513.304	1397.070
262513.311	1391.941
262513.335	1388.278
262513.344	1386.081
262513.372	1383.883
262513.373	1383.150
262513.389	1382.418
262513.413	1384.615
262513.447	1386.813
262513.448	1389.011
262513.451	1391.941
262513.467	1394.872
262513.491	1396.337
262513.513	1397.070
262513.527	1397.802
262513.537	1397.802
262513.547	1395.604
262513.559	1392.674
262513.578	1389.744
262513.586	1386.813
262513.611	1383.883
262513.627	1383.150
262513.638	1383.150
262513.663	1385.348
262513.674	1388.278
262513.694	1392.674
262513.707	1396.337
262513.732	1399.267
262513.733	1399.267
262513.749	1397.802
262513.763	1394.872
262513.780	1391.941
262513.791	1389.744
262513.815	1387.546
262513.848	1386.081
262513.854	1385.348
262513.865	1386.081
262513.866	1386.813
262513.895	1388.278
262513.909	1391.209
262513.922	1392.674
262513.931	1394.139
262513.960	1392.674
262513.961	1391.941
262513.987	1390.476
262514.002	1390.476
262514.016	1389.011
262514.033	1389.011
262514.051	1387.546
262514.053	1388.278
262514.088	1388.278
262514.118	1387.546
262514.119	1388.278
262514.131	1391.209
262514.140	1394.872
262514.154	1397.802
262514.178	1398.535
262514.204	1397.070
262514.205	1394.139
262514.222	1392.674
262514.230	1389.744
262514.255	1387.546
262514.256	1385.348
262514.279	1386.813
262514.289	1388.278
262514.318	1389.011
262514.334	1389.011
262514.345	1389.744
262514.369	1390.476
262514.370	1392.674
262514.401	1394.872
262514.403	1396.337
262514.444	1396.337
262514.450	1394.872
262514.451	1392.674
262514.463	1391.209
262514.489	1390.476
262514.507	1390.476
262514.513	1391.209
262514.534	1393.407
262514.559	1395.604
262514.560	1398.535
262514.579	1400.733
262514.603	1402.198
262514.604	1401.465
262514.628	1400.000
262514.638	1397.070
262514.663	1393.407
262514.689	1389.744
262514.714	1387.546
262514.715	1386.081
262514.732	1386.081
262514.742	1386.813
262514.754	1387.546
262514.767	1388.278
262514.793	1389.744
262514.802	1390.476
262514.813	1391.941
262514.819	1393.407
262514.844	1393.407
262514.853	1394.139
262514.866	1391.941
262514.892	1391.209
262514.916	1391.209
262514.918	1390.476
262514.941	1391.941
262514.955	1390.476
262514.962	1391.209
262514.984	1391.209
262514.995	1394.872
262515.029	1398.535
262515.038	1402.198
262515.045	1402.198
262515.063	1402.930
262515.079	1400.733
262515.104	1398.535
262515.105	1396.337
262515.142	1394.872
262515.143	1391.941
262515.158	1391.941
262515.183	1390.476
262515.186	1390.476
262515.200	1388.278
262515.224	1389.011
262515.225	1388.278
262515.254	1389.744
262515.255	1390.476
262515.280	1391.941
262515.290	1392.674
262515.314	1394.139
262515.329	1394.872
262515.359	1396.337
262515.385	1394.872
262515.386	1394.872
262515.405	1393.407
262515.406	1394.139
262515.423	1394.872
262515.447	1395.604
262515.448	1397.070
262515.462	1400.733
262515.487	1402.930
262515.510	1405.128
262515.513	1405.128
262515.539	1404.396
262515.544	1402.930
262515.554	1401.465
262515.584	1399.267
262515.618	1399.267
262515.619	1397.070
262515.631	1395.604
262515.639	1393.407
262515.659	1393.407
262515.674	1392.674
262515.688	1392.674
262515.709	1393.407
262515.738	1393.407
262515.744	1394.139
262515.753	1394.872
262515.760	1395.604
262515.784	1397.070
262515.789	1395.604
262515.814	1395.604
262515.819	1394.872
262515.850	1394.139
262515.851	1392.674
262515.867	1393.407
262515.889	1394.872
262515.904	1400.000
262515.923	1403.663
262515.931	1408.791
262515.966	1410.989
262515.968	1411.722
262516.000	1408.791
262516.001	1405.861
262516.034	1402.930
262516.035	1400.733
262516.045	1398.535
262516.060	1397.802
262516.095	1395.604
262516.100	1394.139
262516.109	1393.407
262516.118	1392.674
262516.144	1391.941
262516.161	1393.407
262516.178	1394.872
262516.210	1395.604
262516.211	1397.802
262516.218	1397.802
262516.240	1397.802
262516.250	1396.337
262516.260	1394.872
262516.285	1393.407
262516.287	1391.941
262516.329	1392.674
262516.330	1391.941
262516.343	1393.407
262516.354	1396.337
262516.373	1401.465
262516.390	1407.326
262516.399	1412.454
262516.435	1416.117
262516.454	1416.850
262516.455	1415.385
262516.463	1412.454
262516.494	1408.791
262516.503	1405.128
262516.516	1401.465
262516.540	1397.802
262516.541	1395.604
262516.567	1392.674
262516.589	1389.744
262516.594	1387.546
262516.609	1386.813
262516.647	1387.546
262516.649	1391.209
262516.650	1396.337
262516.684	1402.198
262516.692	1406.593
262516.707	1409.524
262516.719	1410.256
262516.743	1408.059
262516.744	1404.396
262516.759	1399.267
262516.799	1394.872
262516.800	1391.209
262516.812	1389.744
262516.832	1390.476
262516.845	1391.941
262516.870	1397.070
262516.872	1402.198
262516.919	1408.791
262516.920	1413.919
262516.925	1416.850
262516.934	1416.850
262516.953	1413.919
262516.962	1408.791
262516.987	1403.663
262517.001	1400.000
262517.038	1397.070
262517.039	1394.872
262517.050	1392.674
262517.051	1391.941
262517.080	1391.209
262517.091	1392.674
262517.117	1395.604
262517.118	1398.535
262517.159	1400.733
262517.160	1402.930
262517.173	1403.663
262517.186	1402.930
262517.214	1402.198
262517.215	1400.733
262517.240	1397.802
262517.249	1394.139
262517.274	1389.744
262517.275	1388.278
262517.302	1386.813
262517.324	1386.081
262517.325	1387.546
262517.341	1390.476
262517.353	1393.407
262517.383	1397.070
262517.399	1402.198
262517.408	1408.791
262517.423	1414.652
262517.439	1418.315
262517.454	1418.315
262517.461	1414.652
262517.485	1408.059
262517.513	1402.198
262517.517	1396.337
262517.542	1392.674
262517.543	1390.476
262517.555	1388.278
262517.580	1387.546
262517.595	1387.546
262517.632	1389.011
262517.633	1389.744
262517.640	1391.941
262517.650	1394.139
262517.679	1396.337
262517.689	1397.802
262517.701	1398.535
262517.727	1399.267
262517.752	1398.535
262517.753	1396.337
262517.758	1395.604
262517.779	1395.604
262517.810	1394.872
262517.811	1394.139
262517.822	1392.674
262517.857	1391.209
262517.872	1389.744
262517.873	1387.546
262517.890	1386.813
262517.924	1385.348
262517.925	1387.546
262517.934	1392.674
262517.959	1397.802
262517.959	1402.930
262517.985	1405.861
262518.004	1408.059
262518.017	1405.861
262518.041	1402.198
262518.046	1397.802
262518.058	1394.872
262518.092	1391.209
262518.093	1389.011
262518.116	1386.813
262518.118	1386.081
262518.143	1386.813
262518.149	1388.278
262518.177	1389.011
262518.185	1389.744
262518.211	1391.209
262518.229	1393.407
262518.230	1394.872
262518.249	1396.337
262518.263	1395.604
262518.283	1393.407
262518.292	1389.744
262518.316	1389.011
262518.318	1386.081
262518.343	1385.348
262518.352	1384.615
262518.366	1384.615
262518.393	1385.348
262518.419	1388.278
262518.420	1390.476
262518.449	1394.139
262518.450	1397.802
262518.463	1401.465
262518.486	1404.396
262518.505	1405.128
262518.517	1402.930
262518.533	1399.267
262518.565	1393.407
262518.566	1389.744
262518.599	1386.813
262518.601	1386.081
262518.610	1386.081
262518.629	1387.546
262518.643	1388.278
262518.663	1388.278
262518.688	1389.744
262518.689	1390.476
262518.703	1391.941
262518.723	1392.674
262518.724	1391.941
262518.749	1391.941
262518.759	1391.209
262518.786	1390.476
262518.812	1389.011
262518.813	1389.011
262518.832	1389.011
262518.843	1389.744
262518.852	1390.476
262518.870	1391.941
262518.895	1391.941
262518.896	1392.674
262518.935	1392.674
262518.936	1394.139
262518.950	1394.139
262518.963	1394.139
262518.992	1395.604
262519.005	1397.070
262519.015	1397.070
262519.045	1397.070
262519.046	1394.139
262519.059	1391.209
262519.083	1388.278
262519.090	1386.081
262519.114	1385.348
262519.115	1384.615
262519.139	1384.615
262519.174	1386.081
262519.207	1387.546
262519.208	1389.744
262519.215	1391.941
262519.216	1394.872
262519.230	1396.337
262519.248	1395.604
262519.282	1394.872
262519.283	1393.407
262519.298	1393.407
262519.313	1391.209
262519.339	1389.744
262519.340	1389.011
262519.365	1388.278
262519.366	1388.278
262519.396	1388.278
262519.409	1388.278
262519.419	1389.744
262519.443	1389.744
262519.454	1391.209
262519.464	1391.941
262519.488	1393.407
262519.521	1394.872
262519.523	1397.802
262519.534	1399.267
262519.544	1399.267
262519.555	1397.802
262519.589	1394.872
262519.597	1391.941
262519.610	1388.278
262519.638	1386.081
262519.639	1383.150
262519.660	1382.418
262519.678	1382.418
262519.688	1383.883
262519.698	1386.813
262519.722	1389.744
262519.732	1391.209
262519.757	1392.674
262519.768	1392.674
262519.780	1392.674
262519.790	1391.209
262519.822	1390.476
262519.846	1389.744
262519.848	1389.011
262519.880	1388.278
262519.881	1387.546
262519.891	1387.546
262519.904	1387.546
262519.919	1386.081
262519.945	1386.813
262519.950	1386.081
262519.962	1387.546
262519.990	1389.011
262520.007	1390.476
262520.017	1391.941
262520.041	1394.139
262520.043	1395.604
262520.059	1396.337
262520.084	1396.337
262520.114	1396.337
262520.115	1394.872
262520.120	1392.674
262520.146	1390.476
262520.148	1387.546
262520.173	1386.081
262520.189	1384.615
262520.204	1383.150
262520.229	1384.615
262520.238	1385.348
262520.252	1386.813
262520.260	1389.744
262520.284	1391.209
262520.290	1391.941
262520.310	1392.674
262520.320	1391.209
262520.347	1390.476
262520.367	1389.744
262520.368	1389.011
262520.393	1389.011
262520.408	1389.011
262520.424	1389.744
262520.432	1390.476
262520.463	1389.744
262520.464	1388.278
262520.489	1386.813
262520.490	1387.546
262520.517	1389.744
262520.530	1393.407
262520.556	1396.337
262520.584	1398.535
262520.588	1398.535
262520.589	1396.337
262520.617	1393.407
262520.618	1390.476
262520.643	1386.813
262520.652	1383.150
262520.670	1380.952
262520.707	1380.952
262520.708	1382.418
262520.718	1385.348
262520.737	1388.278
262520.747	1391.209
262520.760	1392.674
262520.785	1394.139
262520.787	1394.139
262520.823	1394.872
262520.824	1394.139
262520.849	1393.407
262520.850	1391.941
262520.872	1389.011
262520.897	1387.546
262520.913	1387.546
262520.940	1387.546
262520.941	1388.278
262520.955	1388.278
262520.965	1390.476
262520.995	1391.941
262521.003	1394.139
262521.017	1395.604
262521.043	1397.802
262521.044	1400.000
262521.070	1401.465
262521.079	1400.000
262521.104	1397.070
262521.105	1392.674
262521.130	1390.476
262521.139	1387.546
262521.172	1386.813
262521.180	1386.081
262521.187	1387.546
262521.202	1388.278
262521.218	1390.476
262521.229	1390.476
262521.254	1391.209
262521.259	1391.941
262521.290	1393.407
262521.302	1394.139
262521.310	1394.872
262521.320	1394.139
262521.348	1394.139
262521.355	1391.941
262521.376	1391.209
262521.412	1389.744
262521.413	1389.744
262521.419	1389.744
262521.433	1390.476
262521.456	1390.476
262521.458	1389.744
262521.488	1389.744
262521.503	1391.941
262521.528	1394.872
262521.538	1398.535
262521.545	1400.733
262521.559	1402.930
262521.581	1402.930
262521.601	1401.465
262521.603	1398.535
262521.628	1397.802
262521.652	1395.604
262521.658	1394.139
262521.680	1394.872
262521.689	1395.604
262521.698	1394.872
262521.723	1396.337
262521.748	1396.337
262521.749	1396.337
262521.774	1394.872
262521.775	1393.407
262521.801	1392.674
262521.813	1393.407
262521.824	1393.407
262521.848	1393.407
262521.853	1394.139
262521.880	1394.139
262521.895	1393.407
262521.896	1392.674
262521.922	1391.941
262521.930	1391.941
262521.962	1392.674
262521.963	1394.872
262521.993	1394.872
262522.008	1397.070
262522.020	1398.535
262522.033	1400.733
262522.052	1402.930
262522.053	1405.861
262522.087	1405.861
262522.120	1405.861
262522.121	1403.663
262522.132	1401.465
262522.141	1399.267
262522.165	1397.070
262522.175	1394.139
262522.188	1393.407
262522.198	1392.674
262522.223	1391.941
262522.224	1391.941
262522.255	1392.674
262522.260	1393.407
262522.285	1394.139
262522.292	1396.337
262522.320	1396.337
262522.353	1397.070
262522.354	1396.337
262522.359	1395.604
262522.369	1396.337
262522.402	1396.337
262522.412	1397.070
262522.425	1396.337
262522.435	1396.337
262522.469	1395.604
262522.470	1394.872
262522.483	1395.604
262522.510	1395.604
262522.511	1397.070
262522.539	1400.000
262522.540	1402.930
262522.556	1407.326
262522.595	1408.791
262522.596	1409.524
262522.612	1408.059
262522.638	1405.861
262522.639	1402.930
262522.664	1400.000
262522.683	1396.337
262522.713	1394.139
262522.714	1392.674
262522.718	1391.941
262522.728	1391.941
262522.753	1391.941
262522.758	1393.407
262522.781	1395.604
262522.800	1397.070
262522.825	1399.267
262522.826	1400.000
262522.839	1400.733
262522.853	1400.000
262522.870	1399.267
262522.894	1396.337
262522.904	1395.604
262522.920	1394.139
262522.945	1393.407
262522.958	1392.674
262522.960	1393.407
262522.987	1393.407
262522.994	1394.872
262523.028	1397.070
262523.029	1402.198
262523.057	1406.593
262523.058	1409.524
262523.084	1410.256
262523.085	1410.989
262523.114	1408.791
262523.115	1405.861
262523.140	1401.465
262523.149	1397.802
262523.187	1394.872
262523.191	1393.407
262523.193	1391.941
262523.223	1391.941
262523.237	1391.209
262523.247	1392.674
262523.262	1393.407
262523.305	1394.872
262523.306	1396.337
262523.309	1398.535
262523.333	1400.000
262523.344	1400.733
262523.362	1400.000
262523.368	1398.535
262523.393	1397.802
262523.418	1397.070
262523.419	1395.604
262523.442	1394.872
262523.452	1395.604
262523.474	1394.872
262523.497	1395.604
262523.498	1396.337
262523.525	1398.535
262523.525	1400.733
262523.550	1405.128
262523.560	1410.256
262523.575	1411.722
262523.599	1411.722
262523.607	1409.524
262523.632	1407.326
262523.658	1403.663
262523.659	1400.733
262523.709	1397.070
262523.710	1396.337
262523.728	1394.872
262523.729	1394.139
262523.739	1393.407
262523.764	1393.407
262523.766	1392.674
262523.789	1393.407
262523.802	1393.407
262523.808	1394.139
262523.827	1394.139
262523.840	1395.604
262523.864	1396.337
262523.865	1397.070
262523.891	1397.070
262523.902	1397.802
262523.922	1397.070
262523.932	1395.604
262523.952	1394.139
262523.962	1393.407
262524.000	1391.209
262524.001	1391.941
262524.018	1393.407
262524.041	1395.604
262524.043	1400.000
262524.067	1405.861
262524.077	1410.989
262524.100	1416.117
262524.125	1417.582
262524.126	1416.117
262524.139	1412.454
262524.190	1406.593
262524.191	1400.733
262524.193	1397.070
262524.212	1394.139
262524.216	1393.407
262524.243	1391.941
262524.249	1392.674
262524.259	1392.674
262524.284	1393.407
262524.311	1394.139
262524.312	1396.337
262524.337	1396.337
262524.338	1397.802
262524.363	1397.802
262524.364	1397.802
262524.396	1397.802
262524.397	1397.070
262524.425	1396.337
262524.434	1394.872
262524.468	1394.139
262524.469	1394.139
262524.485	1393.407
262524.502	1393.407
262524.525	1392.674
262524.539	1393.407
262524.544	1394.872
262524.552	1398.535
262524.577	1402.198
262524.610	1407.326
262524.611	1410.989
262524.628	1413.187
262524.642	1411.722
262524.662	1408.791
262524.663	1404.396
262524.693	1399.267
262524.723	1394.872
262524.724	1391.209
262524.726	1387.546
262524.754	1386.081
262524.755	1384.615
262524.780	1385.348
262524.790	1386.081
262524.810	1388.278
262524.835	1390.476
262524.844	1394.139
262524.869	1397.070
262524.870	1398.535
262524.897	1397.070
262524.898	1397.070
262524.922	1395.604
262524.952	1394.872
262524.953	1393.407
262524.978	1392.674
262524.979	1391.941
262525.005	1392.674
262525.022	1393.407
262525.035	1393.407
262525.045	1394.139
262525.075	1395.604
262525.076	1396.337
262525.089	1400.733
262525.113	1403.663
262525.124	1406.593
262525.139	1409.524
262525.149	1408.791
262525.180	1405.128
262525.181	1401.465
262525.208	1394.872
262525.214	1390.476
262525.229	1386.813
262525.255	1384.615
262525.256	1383.883
262525.282	1384.615
262525.307	1386.813
262525.308	1387.546
262525.335	1389.011
262525.336	1391.209
262525.360	1394.139
262525.369	1396.337
262525.390	1395.604
262525.399	1395.604
262525.424	1394.139
262525.433	1393.407
262525.452	1391.941
262525.462	1390.476
262525.487	1388.278
262525.507	1389.011
262525.514	1389.011
262525.539	1389.011
262525.552	1390.476
262525.553	1390.476
262525.582	1390.476
262525.607	1391.941
262525.608	1394.139
262525.632	1398.535
262525.658	1402.198
262525.669	1405.128
262525.673	1405.861
262525.688	1405.128
262525.708	1402.198
262525.717	1397.802
262525.743	1393.407
262525.744	1389.744
262525.773	1386.813
262525.788	1385.348
262525.799	1384.615
262525.809	1386.081
262525.833	1386.813
262525.843	1387.546
262525.863	1389.011
262525.869	1389.011
262525.896	1388.278
262525.910	1390.476
262525.923	1391.941
262525.948	1391.941
262525.957	1392.674
262525.964	1392.674
262525.990	1391.209
262525.991	1390.476
262526.018	1389.011
262526.025	1389.011
262526.057	1389.011
262526.058	1389.744
262526.085	1389.011
262526.092	1389.011
262526.124	1388.278
262526.125	1389.011
262526.147	1389.744
262526.148	1391.941
262526.167	1394.139
262526.190	1399.267
262526.200	1402.198
262526.225	1405.128
262526.226	1404.396
262526.252	1402.198
262526.279	1397.070
262526.281	1392.674
262526.288	1389.011
262526.313	1385.348
262526.337	1383.883
262526.338	1383.150
262526.375	1383.150
262526.377	1383.150
262526.405	1385.348
262526.412	1387.546
262526.423	1388.278
262526.433	1389.744
262526.453	1389.011
262526.462	1390.476
262526.489	1390.476
262526.490	1392.674
262526.515	1391.209
262526.525	1391.209
262526.553	1390.476
262526.554	1391.209
262526.579	1390.476
262526.605	1389.744
262526.606	1389.011
262526.630	1389.011
262526.640	1389.011
262526.662	1389.744
262526.668	1389.744
262526.693	1390.476
262526.722	1389.744
262526.723	1390.476
262526.738	1394.139
262526.754	1398.535
262526.755	1401.465
262526.788	1403.663
262526.802	1403.663
262526.812	1400.733
262526.842	1396.337
262526.843	1393.407
262526.873	1389.744
262526.893	1388.278
262526.894	1386.081
262526.910	1386.081
262526.922	1386.081
262526.932	1388.278
262526.960	1389.011
262526.961	1390.476
262526.983	1390.476
262526.999	1391.209
262527.013	1391.941
262527.027	1393.407
262527.047	1394.139
262527.055	1394.872
262527.080	1394.872
262527.094	1394.139
262527.107	1394.139
262527.132	1392.674
262527.142	1391.209
262527.168	1391.209
262527.173	1390.476
262527.198	1391.941
262527.210	1391.209
262527.220	1392.674
262527.230	1391.941
262527.248	1393.407
262527.260	1394.139
262527.284	1395.604
262527.289	1397.070
262527.314	1400.733
262527.323	1402.930
262527.342	1404.396
262527.357	1402.930
262527.370	1400.000
262527.399	1395.604
262527.400	1390.476
262527.430	1385.348
262527.431	1383.150
262527.457	1380.952
262527.464	1381.685
262527.489	1382.418
262527.494	1385.348
262527.519	1387.546
262527.557	1391.941
262527.558	1394.872
262527.567	1397.802
262527.579	1397.802
262527.588	1397.070
262527.613	1394.872
262527.622	1393.407
262527.641	1391.941
262527.679	1391.209
262527.682	1389.744
262527.683	1389.744
262527.709	1388.278
262527.715	1388.278
262527.744	1388.278
262527.745	1389.744
262527.762	1391.209
262527.787	1394.872
262527.800	1397.802
262527.811	1400.733
262527.820	1402.930
262527.844	1405.128
262527.869	1406.593
262527.879	1405.861
262527.910	1402.930
262527.911	1397.802
262527.922	1393.407
262527.933	1389.744
262527.957	1385.348
262527.958	1383.150
262527.982	1383.150
262528.015	1385.348
262528.017	1387.546
262528.039	1389.744
262528.045	1391.209
262528.057	1393.407
262528.080	1393.407
262528.099	1394.872
262528.109	1394.872
262528.138	1395.604
262528.139	1395.604
262528.164	1395.604
262528.195	1394.872
262528.196	1395.604
262528.207	1394.872
262528.217	1394.139
262528.245	1392.674
262528.268	1391.941
262528.270	1391.209
262528.279	1391.209
262528.295	1390.476
262528.319	1391.941
262528.324	1391.941
262528.349	1393.407
262528.350	1396.337
262528.387	1400.733
262528.392	1404.396
262528.417	1407.326
262528.418	1408.059
262528.443	1405.861
262528.454	1402.198
262528.464	1398.535
262528.495	1394.139
262528.504	1391.209
262528.510	1389.011
262528.535	1388.278
262528.544	1389.011
262528.559	1391.209
262528.577	1393.407
262528.615	1394.872
262528.616	1395.604
262528.625	1396.337
262528.644	1396.337
262528.662	1394.872
262528.664	1393.407
262528.687	1393.407
262528.700	1393.407
262528.735	1392.674
262528.736	1391.209
262528.745	1391.209
262528.759	1392.674
262528.788	1392.674
262528.812	1391.941
262528.813	1393.407
262528.855	1394.872
262528.856	1394.872
262528.860	1395.604
262528.870	1397.802
262528.890	1399.267
262528.903	1402.198
262528.927	1405.128
262528.928	1408.791
262528.961	1409.524
262528.962	1408.059
262528.980	1405.128
262529.005	1400.733
262529.027	1396.337
262529.033	1392.674
262529.048	1389.744
262529.062	1389.744
262529.089	1388.278
262529.098	1389.011
262529.108	1389.744
262529.133	1391.209
262529.134	1392.674
262529.160	1395.604
262529.176	1397.070
262529.207	1399.267
262529.208	1400.000
262529.220	1400.733
262529.235	1400.733
262529.247	1400.000
262529.260	1397.070
262529.284	1394.139
262529.289	1391.209
262529.328	1389.744
262529.329	1389.011
262529.342	1389.744
262529.365	1389.744
262529.366	1390.476
262529.395	1391.209
262529.411	1393.407
262529.444	1395.604
262529.470	1400.000
262529.471	1405.128
262529.489	1410.256
262529.490	1411.722
262529.503	1412.454
262529.517	1408.059
262529.535	1405.128
262529.562	1399.267
262529.567	1394.872
262529.578	1391.209
262529.592	1389.011
262529.610	1386.813
262529.629	1386.813
262529.639	1386.081
262529.669	1387.546
262529.685	1389.011
262529.688	1391.941
262529.712	1394.139
262529.718	1395.604
262529.728	1395.604
262529.747	1397.070
262529.760	1397.070
262529.800	1396.337
262529.801	1394.872
262529.812	1394.139
262529.825	1394.139
262529.843	1394.139
262529.853	1394.139
262529.882	1394.139
262529.888	1393.407
262529.913	1392.674
262529.920	1391.209
262529.953	1390.476
262529.954	1391.941
262529.970	1394.872
262529.984	1400.000
262529.994	1405.128
262530.025	1408.791
262530.041	1409.524
262530.042	1407.326
262530.054	1402.930
262530.085	1396.337
262530.095	1391.941
262530.109	1388.278
262530.119	1386.081
262530.154	1384.615
262530.161	1385.348
262530.178	1386.081
262530.185	1388.278
262530.209	1390.476
262530.217	1392.674
262530.243	1393.407
262530.277	1394.139
262530.278	1395.604
262530.285	1397.070
262530.303	1396.337
262530.310	1396.337
262530.335	1394.872
262530.340	1394.872
262530.367	1394.139
262530.368	1392.674
262530.400	1392.674
262530.411	1391.941
262530.419	1389.744
262530.443	1389.744
262530.453	1389.011
262530.464	1390.476
262530.489	1391.941
262530.518	1395.604
262530.520	1400.000
262530.527	1404.396
262530.545	1407.326
262530.559	1408.059
262530.577	1406.593
262530.614	1402.198
262530.615	1397.070
262530.638	1391.209
262530.639	1386.813
262530.667	1383.883
262530.668	1382.418
262530.687	1383.150
262530.693	1383.883
262530.723	1386.813
262530.724	1388.278
262530.749	1391.209
262530.764	1393.407
262530.782	1394.872
262530.805	1396.337
262530.807	1396.337
262530.832	1395.604
262530.865	1394.872
262530.870	1391.941
262530.888	1390.476
262530.889	1389.744
262530.900	1389.744
262530.925	1389.011
262530.930	1389.011
262530.951	1389.011
262530.982	1389.011
262530.983	1390.476
262531.008	1392.674
262531.013	1394.139
262531.039	1397.802
262531.041	1402.198
262531.064	1405.128
262531.094	1405.861
262531.095	1404.396
262531.110	1400.000
262531.135	1394.872
262531.137	1390.476
262531.165	1386.813
262531.177	1384.615
262531.187	1383.883
262531.218	1383.150
262531.219	1384.615
262531.241	1386.813
262531.249	1388.278
262531.260	1390.476
262531.285	1394.139
262531.286	1395.604
262531.312	1397.070
262531.334	1397.070
262531.359	1397.070
262531.382	1397.070
262531.383	1397.070
262531.390	1394.872
262531.400	1392.674
262531.426	1390.476
262531.452	1389.011
262531.462	1389.011
262531.463	1389.744
262531.489	1391.209
262531.500	1392.674
262531.518	1395.604
262531.527	1399.267
262531.559	1401.465
262531.560	1405.128
262531.578	1407.326
262531.587	1405.861
262531.619	1401.465
262531.620	1397.070
262531.645	1394.139
262531.659	1390.476
262531.691	1388.278
262531.691	1387.546
262531.704	1387.546
262531.722	1386.813
262531.729	1388.278
262531.782	1391.209
262531.812	1393.407
262531.814	1395.604
262531.815	1396.337
262531.817	1396.337
262531.828	1397.070
262531.842	1397.070
262531.852	1396.337
262531.877	1394.872
262531.889	1392.674
262531.917	1391.941
262531.932	1391.209
262531.942	1392.674
262531.952	1391.941
262531.965	1392.674
262531.990	1392.674
262532.005	1394.139
262532.032	1394.872
262532.033	1397.802
262532.054	1402.198
262532.055	1406.593
262532.080	1410.256
262532.099	1411.722
262532.107	1410.256
262532.130	1406.593
262532.167	1401.465
262532.168	1396.337
262532.187	1393.407
262532.193	1391.941
262532.200	1390.476
262532.215	1390.476
262532.228	1390.476
262532.253	1391.941
262532.254	1391.941
262532.279	1393.407
262532.300	1394.139
262532.309	1395.604
262532.335	1397.070
262532.337	1396.337
262532.362	1396.337
262532.399	1394.872
262532.400	1394.872
262532.410	1395.604
262532.422	1395.604
262532.430	1394.872
262532.458	1393.407
262532.467	1392.674
262532.502	1391.941
262532.503	1392.674
262532.519	1393.407
262532.525	1394.139
262532.553	1397.070
262532.554	1399.267
262532.579	1402.930
262532.597	1407.326
262532.624	1410.256
262532.650	1411.722
262532.651	1409.524
262532.677	1405.128
262532.687	1400.733
262532.688	1395.604
262532.709	1392.674
262532.717	1389.744
262532.748	1389.744
262532.749	1389.011
262532.757	1389.011
262532.782	1390.476
262532.798	1390.476
262532.808	1391.941
262532.833	1394.872
262532.840	1397.070
262532.872	1398.535
262532.897	1400.733
262532.898	1400.000
262532.910	1400.000
262532.920	1398.535
262532.942	1398.535
262532.955	1397.070
262532.987	1395.604
262532.988	1392.674
262533.002	1393.407
262533.018	1393.407
262533.042	1394.139
262533.043	1396.337
262533.055	1400.000
262533.080	1404.396
262533.109	1408.791
262533.117	1410.256
262533.122	1409.524
262533.145	1406.593
262533.160	1403.663
262533.162	1399.267
262533.224	1395.604
262533.225	1392.674
262533.234	1390.476
262533.235	1389.011
262533.247	1389.744
262533.280	1391.941
262533.282	1393.407
262533.293	1395.604
262533.318	1397.802
262533.319	1399.267
262533.344	1399.267
262533.353	1400.000
262533.382	1399.267
262533.389	1398.535
262533.413	1396.337
262533.419	1392.674
262533.449	1390.476
262533.450	1389.011
262533.465	1389.011
262533.484	1390.476
262533.497	1389.744
262533.519	1392.674
262533.529	1397.070
262533.547	1402.198
262533.580	1408.059
262533.582	1412.454
262533.585	1413.919
262533.610	1412.454
262533.628	1409.524
262533.642	1404.396
262533.659	1400.000
262533.697	1395.604
262533.698	1394.139
262533.705	1391.941
262533.720	1389.744
262533.739	1389.011
262533.749	1388.278
262533.758	1389.011
262533.787	1390.476
262533.817	1392.674
262533.818	1395.604
262533.832	1398.535
262533.842	1400.733
262533.865	1401.465
262533.877	1400.733
262533.888	1398.535
262533.922	1396.337
262533.923	1394.139
262533.948	1392.674
262533.967	1391.209
262533.968	1390.476
262533.983	1389.011
262534.004	1389.744
262534.014	1390.476
262534.059	1391.941
262534.059	1396.337
262534.062	1402.930
262534.077	1408.791
262534.088	1413.187
262534.115	1414.652
262534.117	1414.652
262534.145	1410.256
262534.174	1405.128
262534.180	1400.000
262534.182	1395.604
262534.207	1391.209
262534.215	1389.011
262534.242	1387.546
262534.247	1388.278
262534.260	1388.278
262534.289	1389.011
262534.290	1390.476
262534.312	1393.407
262534.320	1394.139
262534.348	1394.872
262534.354	1395.604
262534.394	1395.604
262534.395	1394.872
262534.413	1394.872
262534.422	1393.407
262534.437	1394.139
262534.454	1393.407
262534.472	1394.139
262534.485	1392.674
262534.503	1392.674
262534.529	1393.407
262534.530	1394.872
262534.564	1397.802
262534.565	1402.198
262534.574	1406.593
262534.597	1410.256
262534.612	1410.989
262534.639	1409.524
262534.649	1405.128
262534.673	1400.733
262534.674	1394.872
262534.688	1391.941
262534.708	1388.278
262534.717	1386.081
262534.762	1385.348
262534.763	1385.348
262534.765	1385.348
262534.778	1386.081
262534.803	1389.011
262534.809	1392.674
262534.830	1395.604
262534.840	1399.267
262534.882	1400.733
262534.889	1400.733
262534.890	1399.267
262534.900	1397.802
262534.919	1394.139
262534.944	1391.209
262534.953	1387.546
262534.967	1386.081
262534.998	1386.081
262534.999	1389.011
262535.014	1390.476
262535.034	1392.674
262535.048	1395.604
262535.057	1399.267
262535.080	1405.128
262535.112	1408.791
262535.119	1408.059
262535.128	1406.593
262535.138	1401.465
262535.158	1396.337
262535.164	1392.674
262535.189	1389.744
262535.214	1387.546
262535.215	1385.348
262535.240	1383.883
262535.252	1384.615
262535.258	1384.615
262535.283	1385.348
262535.299	1387.546
262535.310	1389.744
262535.347	1391.941
262535.348	1394.139
262535.362	1396.337
262535.383	1397.070
262535.388	1397.802
262535.405	1397.070
262535.429	1395.604
262535.439	1392.674
262535.470	1391.209
262535.471	1389.011
262535.485	1387.546
262535.507	1388.278
262535.513	1389.011
262535.538	1391.941
262535.547	1393.407
262535.553	1396.337
262535.587	1399.267
262535.597	1403.663
262535.608	1405.128
262535.630	1404.396
262535.639	1401.465
262535.665	1396.337
262535.667	1391.941
262535.695	1387.546
262535.696	1385.348
262535.720	1385.348
262535.729	1385.348
262535.778	1385.348
262535.779	1387.546
262535.780	1389.011
262535.792	1390.476
262535.812	1391.941
262535.845	1393.407
262535.847	1392.674
262535.873	1392.674
262535.880	1392.674
262535.893	1391.941
262535.913	1392.674
262535.938	1391.941
262535.940	1390.476
262535.952	1389.744
262535.968	1389.744
262535.982	1389.744
262536.003	1389.744
262536.013	1390.476
262536.047	1390.476
262536.048	1391.941
262536.064	1394.139
262536.078	1397.802
262536.087	1402.198
262536.113	1405.128
262536.128	1404.396
262536.138	1402.930
262536.179	1400.000
262536.180	1394.872
262536.187	1389.744
262536.202	1385.348
262536.225	1383.150
262536.237	1383.150
262536.247	1384.615
262536.262	1387.546
262536.295	1388.278
262536.296	1391.941
262536.314	1394.139
262536.321	1394.872
262536.345	1396.337
262536.363	1396.337
262536.378	1394.872
262536.404	1391.941
262536.405	1390.476
262536.422	1389.744
262536.449	1389.744
262536.450	1389.011
262536.488	1389.011
262536.500	1389.011
262536.528	1389.744
262536.529	1389.744
262536.544	1389.744
262536.545	1390.476
262536.562	1391.941
262536.576	1395.604
262536.597	1400.000
262536.610	1402.930
262536.644	1402.930
262536.645	1401.465
262536.657	1397.070
262536.678	1393.407
262536.685	1387.546
262536.709	1383.883
262536.720	1380.220
262536.737	1380.220
262536.768	1380.220
262536.769	1382.418
262536.787	1385.348
262536.803	1389.011
262536.812	1390.476
262536.825	1393.407
262536.844	1394.872
262536.877	1394.872
262536.895	1394.139
262536.897	1393.407
262536.910	1391.209
262536.924	1391.209
262536.930	1391.209
262536.957	1390.476
262536.958	1390.476
262536.993	1390.476
262537.012	1389.744
262537.013	1391.209
262537.037	1391.209
262537.045	1391.941
262537.059	1393.407
262537.083	1395.604
262537.113	1398.535
262537.114	1401.465
262537.140	1401.465
262537.165	1401.465
262537.167	1397.802
262537.174	1393.407
262537.188	1389.011
262537.203	1385.348
262537.237	1383.150
262537.238	1382.418
262537.252	1382.418
262537.259	1383.883
262537.283	1384.615
262537.299	1386.081
262537.309	1388.278
262537.332	1391.209
262537.357	1391.941
262537.358	1391.209
262537.380	1391.941
262537.390	1391.941
262537.400	1391.209
262537.424	1391.209
262537.433	1390.476
262537.462	1391.209
262537.480	1390.476
262537.482	1390.476
262537.498	1390.476
262537.513	1389.744
262537.535	1389.011
262537.545	1389.744
262537.561	1391.941
262537.585	1394.872
262537.599	1398.535
262537.613	1401.465
262537.630	1402.198
262537.639	1402.198
262537.668	1399.267
262537.669	1396.337
262537.685	1392.674
262537.709	1389.744
262537.717	1387.546
262537.743	1386.813
262537.773	1387.546
262537.774	1389.744
262537.778	1390.476
262537.803	1392.674
262537.830	1394.139
262537.839	1396.337
262537.840	1397.802
262537.867	1400.000
262537.879	1399.267
262537.893	1399.267
262537.913	1398.535
262537.945	1396.337
262537.962	1395.604
262537.963	1394.872
262537.975	1393.407
262537.984	1392.674
262537.994	1391.209
262538.020	1391.209
262538.027	1391.209
262538.058	1392.674
262538.059	1397.070
262538.074	1401.465
262538.092	1408.059
262538.115	1412.454
262538.117	1413.919
262538.140	1412.454
262538.150	1409.524
262538.177	1403.663
262538.193	1398.535
262538.194	1394.139
262538.227	1389.744
262538.228	1388.278
262538.253	1388.278
262538.254	1390.476
262538.285	1391.941
262538.314	1394.139
262538.317	1394.872
262538.330	1395.604
262538.343	1394.872
262538.354	1395.604
262538.397	1396.337
262538.398	1398.535
262538.423	1399.267
262538.424	1400.000
262538.445	1399.267
262538.452	1399.267
262538.477	1398.535
262538.483	1396.337
262538.493	1394.872
262538.519	1394.139
262538.520	1393.407
262538.545	1393.407
262538.560	1396.337
262538.580	1400.733
262538.590	1403.663
262538.609	1406.593
262538.623	1408.059
262538.658	1405.861
262538.659	1401.465
262538.668	1397.070
262538.692	1391.941
262538.707	1388.278
262538.717	1386.813
262538.738	1387.546
262538.748	1389.011
262538.773	1392.674
262538.785	1394.872
262538.800	1397.802
262538.809	1400.000
262538.834	1402.198
262538.840	1402.930
262538.862	1402.198
262538.893	1399.267
262538.894	1397.070
262538.907	1393.407
262538.918	1391.941
262538.943	1390.476
262538.949	1389.011
262538.973	1389.011
262538.984	1389.744
262539.007	1391.209
262539.048	1393.407
262539.049	1394.872
262539.063	1398.535
262539.064	1402.198
262539.075	1407.326
262539.085	1410.989
262539.110	1412.454
262539.140	1410.989
262539.142	1408.059
262539.152	1402.198
262539.164	1396.337
262539.189	1389.744
262539.207	1386.813
262539.218	1383.883
262539.250	1383.150
262539.251	1383.150
262539.257	1386.081
262539.282	1388.278
262539.298	1391.209
262539.308	1394.139
262539.333	1397.802
262539.341	1400.000
262539.365	1400.000
262539.379	1399.267
262539.389	1398.535
262539.409	1397.070
262539.423	1394.872
262539.430	1391.941
262539.457	1390.476
262539.458	1389.011
262539.483	1389.011
262539.513	1388.278
262539.522	1389.011
262539.540	1389.744
262539.540	1393.407
262539.557	1396.337
262539.599	1400.733
262539.600	1404.396
262539.607	1406.593
262539.619	1405.861
262539.644	1402.930
262539.645	1400.000
262539.670	1397.070
262539.692	1393.407
262539.725	1390.476
262539.727	1388.278
262539.737	1389.011
262539.750	1389.744
262539.760	1391.209
262539.785	1391.209
262539.802	1392.674
262539.810	1394.139
262539.839	1394.872
262539.840	1394.872
262539.865	1396.337
262539.880	1394.872
262539.889	1394.139
262539.919	1392.674
262539.920	1391.941
262539.959	1391.941
262539.960	1392.674
262539.974	1391.941
262539.984	1391.941
262539.994	1391.209
262540.013	1392.674
262540.028	1396.337
262540.044	1400.733
262540.078	1404.396
262540.079	1405.128
262540.087	1405.128
262540.112	1401.465
262540.130	1398.535
262540.139	1395.604
262540.164	1393.407
262540.190	1392.674
262540.192	1392.674
262540.207	1391.941
262540.218	1391.941
262540.227	1392.674
262540.254	1391.941
262540.255	1391.209
262540.287	1390.476
262540.288	1390.476
262540.313	1390.476
262540.342	1391.941
262540.343	1391.941
262540.359	1392.674
262540.368	1394.139
262540.393	1394.139
262540.398	1393.407
262540.424	1394.139
262540.438	1393.407
262540.448	1393.407
262540.473	1392.674
262540.482	1391.941
262540.499	1392.674
262540.533	1397.070
262540.552	1402.198
262540.553	1408.059
262540.555	1410.989
262540.579	1411.722
262540.597	1410.256
262540.612	1407.326
262540.627	1402.198
262540.638	1397.802
262540.665	1393.407
262540.672	1390.476
262540.688	1389.011
262540.704	1387.546
262540.718	1386.813
262540.728	1386.813
262540.747	1386.813
262540.783	1389.011
262540.784	1390.476
262540.797	1392.674
262540.808	1394.139
262540.825	1394.872
262540.849	1397.070
262540.850	1399.267
262540.875	1397.802
262540.901	1398.535
262540.913	1397.070
262540.917	1396.337
262540.969	1394.872
262540.972	1392.674
262540.973	1391.941
262540.990	1391.941
262541.017	1394.139
262541.018	1398.535
262541.032	1402.198
262541.047	1408.059
262541.055	1409.524
262541.080	1408.791
262541.087	1405.861
262541.110	1402.930
262541.140	1397.802
262541.142	1394.139
262541.147	1390.476
262541.165	1388.278
262541.189	1387.546
262541.204	1387.546
262541.223	1387.546
262541.224	1389.011
262541.257	1389.744
262541.258	1391.209
262541.278	1392.674
262541.302	1394.872
262541.312	1395.604
262541.332	1396.337
262541.348	1396.337
262541.373	1395.604
262541.383	1393.407
262541.384	1391.941
262541.410	1391.209
262541.419	1390.476
262541.440	1390.476
262541.458	1392.674
262541.466	1394.872
262541.492	1397.802
262541.493	1402.198
262541.514	1406.593
262541.537	1408.791
262541.545	1408.059
262541.559	1405.128
262541.590	1399.267
262541.617	1394.139
262541.618	1389.744
262541.644	1386.813
262541.653	1386.813
262541.660	1386.081
262541.674	1387.546
262541.684	1387.546
262541.714	1389.744
262541.715	1391.209
262541.739	1393.407
262541.748	1394.139
262541.759	1394.872
262541.783	1394.139
262541.802	1393.407
262541.812	1391.941
262541.842	1391.209
262541.843	1391.209
262541.857	1391.941
262541.883	1391.209
262541.889	1390.476
262541.899	1390.476
262541.924	1390.476
262541.962	1390.476
262541.963	1391.209
262541.977	1391.941
262541.987	1394.872
262541.995	1400.000
262542.029	1406.593
262542.032	1411.722
262542.049	1414.652
262542.057	1413.187
262542.082	1409.524
262542.083	1402.930
262542.108	1397.802
262542.128	1392.674
262542.138	1388.278
262542.158	1385.348
262542.164	1385.348
262542.198	1385.348
262542.207	1387.546
262542.213	1389.744
262542.247	1392.674
262542.248	1394.139
262542.259	1395.604
262542.284	1395.604
262542.310	1396.337
262542.312	1395.604
262542.327	1394.872
262542.344	1394.872
262542.370	1394.872
262542.380	1392.674
262542.389	1391.941
262542.412	1391.209
262542.437	1390.476
262542.443	1389.744
262542.454	1389.744
262542.480	1390.476
262542.485	1391.941
262542.507	1394.872
262542.513	1400.000
262542.542	1405.861
262542.543	1411.722
262542.564	1412.454
262542.583	1411.722
262542.595	1406.593
262542.608	1401.465
262542.628	1396.337
262542.642	1391.941
262542.670	1389.011
262542.672	1387.546
262542.688	1386.081
262542.707	1385.348
262542.719	1386.081
262542.744	1386.813
262542.745	1387.546
262542.758	1391.941
262542.788	1394.139
262542.800	1396.337
262542.810	1397.070
262542.835	1399.267
262542.837	1398.535
262542.869	1397.802
262542.912	1395.604
262542.925	1393.407
262542.927	1391.209
262542.929	1390.476
262542.943	1389.011
262542.952	1389.744
262542.965	1389.744
262542.989	1391.209
262542.990	1391.209
262543.019	1393.407
262543.037	1395.604
262543.046	1399.267
262543.060	1402.930
262543.075	1408.059
262543.100	1410.256
262543.109	1409.524
262543.118	1405.861
262543.143	1402.198
262543.154	1396.337
262543.168	1392.674
262543.192	1387.546
262543.213	1386.081
262543.225	1385.348
262543.255	1385.348
262543.256	1386.081
262543.270	1387.546
262543.280	1389.744
262543.289	1391.941
262543.313	1393.407
262543.328	1395.604
262543.345	1397.802
262543.374	1397.070
262543.388	1396.337
262543.394	1395.604
262543.413	1394.139
262543.418	1393.407
262543.440	1393.407
262543.450	1391.209
262543.472	1391.209
262543.503	1390.476
262543.529	1389.011
262543.531	1390.476
262543.553	1389.744
262543.554	1390.476
262543.555	1391.941
262543.585	1396.337
262543.587	1399.267
262543.620	1405.128
262543.627	1408.791
262543.643	1410.989
262543.662	1409.524
262543.663	1405.861
262543.687	1400.000
262543.697	1394.872
262543.722	1389.011
262543.723	1384.615
262543.748	1383.150
262543.762	1383.150
262543.785	1384.615
262543.795	1387.546
262543.819	1389.744
262543.820	1391.209
262543.852	1391.941
262543.853	1393.407
262543.878	1394.139
262543.888	1394.872
262543.912	1394.872
262543.919	1394.872
262543.945	1394.872
262543.973	1394.139
262543.978	1393.407
262543.979	1391.941
262543.995	1390.476
262544.014	1391.209
262544.035	1391.209
262544.047	1390.476
262544.062	1390.476
262544.088	1391.209
262544.097	1390.476
262544.104	1390.476
262544.119	1391.941
262544.144	1395.604
262544.145	1400.000
262544.170	1405.861
262544.200	1408.059
262544.218	1408.059
262544.219	1404.396
262544.227	1399.267
262544.252	1394.872
262544.259	1390.476
262544.287	1386.081
262544.298	1381.685
262544.328	1380.952
262544.329	1381.685
262544.337	1383.150
262544.362	1385.348
262544.378	1387.546
262544.395	1391.209
262544.411	1393.407
262544.419	1395.604
262544.444	1395.604
262544.450	1397.802
262544.476	1398.535
262544.485	1398.535
262544.504	1397.070
262544.518	1394.872
262544.523	1392.674
262544.553	1393.407
262544.554	1394.872
262544.577	1394.872
262544.587	1393.407
262544.612	1392.674
262544.630	1391.209
262544.639	1392.674
262544.684	1394.872
262544.685	1397.802
262544.692	1400.733
262544.707	1404.396
262544.718	1403.663
262544.727	1401.465
262544.748	1398.535
262544.758	1394.139
262544.800	1389.744
262544.802	1386.813
262544.827	1386.081
262544.828	1385.348
262544.844	1386.081
262544.870	1385.348
262544.878	1387.546
262544.888	1390.476
262544.921	1392.674
262544.922	1394.872
262544.947	1397.802
262544.948	1398.535
262544.973	1398.535
262544.983	1398.535
262544.993	1396.337
262545.018	1394.872
262545.042	1392.674
262545.044	1391.209
262545.059	1389.744
262545.074	1389.744
262545.094	1389.744
262545.112	1389.744
262545.138	1389.744
262545.139	1390.476
262545.165	1391.209
262545.180	1394.139
262545.194	1397.802
262545.195	1403.663
262545.227	1408.059
262545.228	1410.989
262545.253	1411.722
262545.254	1410.989
262545.277	1405.861
262545.299	1400.000
262545.309	1392.674
262545.330	1389.011
262545.340	1385.348
262545.365	1385.348
262545.393	1386.081
262545.402	1388.278
262545.410	1389.011
262545.442	1391.209
262545.443	1393.407
262545.452	1394.872
262545.475	1395.604
262545.483	1395.604
262545.512	1394.139
262545.518	1393.407
262545.534	1392.674
262545.543	1391.941
262545.559	1392.674
262545.574	1393.407
262545.599	1391.941
262545.633	1391.209
262545.634	1390.476
262545.638	1391.209
262545.663	1391.941
262545.664	1391.209
262545.685	1391.941
262545.709	1394.872
262545.719	1398.535
262545.744	1403.663
262545.745	1408.059
262545.757	1410.989
262545.782	1410.989
262545.807	1408.791
262545.818	1405.128
262545.834	1399.267
262545.865	1394.872
262545.867	1390.476
262545.880	1388.278
262545.891	1389.011
262545.914	1390.476
262545.915	1390.476
262545.938	1390.476
262545.950	1392.674
262545.984	1393.407
262545.985	1394.139
262546.005	1394.872
262546.015	1394.872
262546.034	1394.139
262546.052	1394.139
262546.083	1394.139
262546.084	1395.604
262546.109	1394.872
262546.110	1394.139
262546.119	1394.872
262546.138	1394.139
262546.149	1392.674
262546.165	1391.941
262546.193	1391.209
262546.225	1391.209
262546.227	1392.674
262546.237	1397.070
262546.250	1401.465
262546.259	1408.059
262546.277	1411.722
262546.302	1413.187
262546.308	1410.989
262546.334	1406.593
262546.340	1399.267
262546.364	1394.872
262546.377	1389.744
262546.389	1386.813
262546.413	1385.348
262546.419	1386.081
262546.450	1387.546
262546.452	1389.744
262546.464	1392.674
262546.488	1396.337
262546.502	1397.070
